Name
Date of Birth,"Jan 30, 1994"
Recorded Date,2024-10-01 11:15:00 -0700
Classification,Sinus Rhythm
Symptoms,
Software Version,1.90
Device,"Watch6,3"
Sample Rate,512 hertz


Lead,Lead I
Unit,µV

-228.838
-199.847
-177.174
-160.048
-147.352
-137.523
-128.99
-120.655
-111.954
-102.831
-93.464
-84.022
-74.931
-66.94
-60.652
-56.355
-54.066
-53.485
-54.207
-55.89
-58.129
-60.454
-62.547
-64.211
-65.344
-65.982
-66.153
-65.844
-65.034
-63.672
-61.686
-59.038
-55.723
-51.754
-47.191
-42.098
-36.524
-30.507
-24.07
-17.229
-10.005
-2.409
5.544
13.812
22.313
30.91
39.446
47.808
55.924
63.752
71.281
78.496
85.376
91.921
98.126
103.982
109.484
114.607
119.328
123.648
127.596
131.23
134.632
137.851
140.914
143.832
146.601
149.214
151.663
153.92
155.951
157.728
159.231
160.45
161.382
162.011
162.316
162.266
161.824
160.966
159.681
157.959
155.802
153.214
150.204
146.795
143.016
138.891
134.446
129.702
124.679
119.402
113.898
108.196
102.326
96.317
90.199
84
77.75
71.476
65.205
58.96
52.762
46.634
40.596
34.67
28.876
23.232
17.756
12.464
7.372
2.491
-2.167
-6.592
-10.779
-14.721
-18.414
-21.856
-25.045
-27.982
-30.669
-33.109
-35.304
-37.262
-38.987
-40.487
-41.77
-42.845
-43.723
-44.412
-44.925
-45.272
-45.464
-45.513
-45.429
-45.224
-44.909
-44.495
-43.992
-43.41
-42.761
-42.052
-41.294
-40.495
-39.663
-38.806
-37.93
-37.041
-36.147
-35.251
-34.36
-33.476
-32.605
-31.749
-30.912
-30.095
-29.301
-28.53
-27.783
-27.061
-26.363
-25.69
-25.039
-24.412
-23.805
-23.22
-22.653
-22.105
-21.573
-21.056
-20.553
-20.062
-19.582
-19.113
-18.652
-18.198
-17.752
-17.311
-16.876
-16.445
-16.018
-15.593
-15.171
-14.752
-14.334
-13.918
-13.505
-13.093
-12.685
-12.279
-11.879
-11.483
-11.094
-10.712
-10.338
-9.975
-9.622
-9.282
-8.956
-8.644
-8.349
-8.07
-7.809
-7.566
-7.342
-7.137
-6.951
-6.785
-6.638
-6.51
-6.401
-6.311
-6.239
-6.184
-6.147
-6.125
-6.119
-6.126
-6.147
-6.178
-6.219
-6.268
-6.324
-6.384
-6.446
-6.508
-6.569
-6.625
-6.675
-6.717
-6.748
-6.767
-6.772
-6.761
-6.734
-6.689
-6.625
-6.542
-6.439
-6.317
-6.175
-6.012
-5.831
-5.631
-5.413
-5.177
-4.925
-4.658
-4.377
-4.084
-3.781
-3.468
-3.149
-2.826
-2.5
-2.173
-1.85
-1.531
-1.22
-0.919
-0.632
-0.361
-0.109
0.121
0.327
0.507
0.657
0.777
0.865
0.918
0.935
0.915
0.857
0.76
0.623
0.445
0.226
-0.035
-0.339
-0.686
-1.075
-1.508
-1.984
-2.503
-3.066
-3.671
-4.318
-5.007
-5.737
-6.508
-7.318
-8.167
-9.054
-9.976
-10.934
-11.925
-12.949
-14.003
-15.088
-16.201
-17.342
-18.51
-19.702
-20.919
-22.159
-23.42
-24.702
-26.003
-27.32
-28.653
-29.999
-31.356
-32.722
-34.094
-35.47
-36.847
-38.222
-39.592
-40.954
-42.305
-43.642
-44.961
-46.258
-47.529
-48.771
-49.979
-51.149
-52.277
-53.36
-54.393
-55.371
-56.29
-57.146
-57.933
-58.648
-59.287
-59.843
-60.314
-60.695
-60.983
-61.176
-61.27
-61.263
-61.153
-60.94
-60.622
-60.199
-59.671
-59.04
-58.305
-57.47
-56.537
-55.509
-54.39
-53.187
-51.905
-50.553
-49.14
-47.674
-46.166
-44.625
-43.062
-41.487
-39.911
-38.341
-36.788
-35.261
-33.772
-32.335
-30.959
-29.655
-28.432
-27.302
-26.273
-25.353
-24.542
-23.843
-23.258
-22.793
-22.464
-22.282
-22.253
-22.38
-22.668
-23.112
-23.705
-24.431
-25.26
-26.159
-27.098
-28.05
-29
-29.931
-30.814
-31.612
-32.28
-32.775
-33.075
-33.156
-32.993
-32.587
-31.953
-31.138
-30.224
-29.281
-28.366
-27.549
-26.898
-26.484
-26.396
-26.709
-27.508
-28.935
-31.061
-33.856
-37.196
-40.772
-44.22
-47.234
-49.427
-50.292
-49.493
-46.996
-43.145
-38.82
-34.992
-32.326
-31.429
-33.026
-37.55
-44.719
-53.308
-61.023
-65.242
-63.603
-53.816
-33.328
0.498
47.719
105.278
169.634
236.595
306.375
384.219
469.057
554.053
625.52
662.522
654.146
601.34
511.916
400.712
280.581
160.155
50.508
-35.248
-88.98
-108.611
-101.826
-85.245
-70.431
-62.377
-60.228
-57.82
-53.296
-48.36
-45.122
-46.449
-52.476
-61.225
-71.076
-80.215
-87.191
-91.569
-93.176
-92.162
-89.176
-84.91
-79.988
-75.064
-70.676
-67.08
-64.384
-62.572
-61.495
-61.027
-61.051
-61.424
-62.021
-62.75
-63.548
-64.353
-65.093
-65.662
-65.941
-65.848
-65.336
-64.387
-62.997
-61.17
-58.921
-56.283
-53.305
-50.033
-46.507
-42.766
-38.847
-34.797
-30.674
-26.539
-22.454
-18.466
-14.607
-10.901
-7.363
-3.999
-0.812
2.206
5.068
7.785
10.362
12.806
15.125
17.326
19.425
21.434
23.37
25.249
27.085
28.893
30.688
32.482
34.286
36.111
37.966
39.859
41.803
43.808
45.89
48.062
50.341
52.742
55.282
57.975
60.834
63.868
67.085
70.489
74.083
77.867
81.842
86.011
90.38
94.946
99.704
104.642
109.744
114.985
120.333
125.755
131.215
136.682
142.132
147.549
152.93
158.268
163.56
168.792
173.937
178.97
183.873
188.632
193.238
197.702
202.042
206.283
210.458
214.577
218.635
222.605
226.438
230.074
233.447
236.511
239.243
241.627
243.646
245.273
246.47
247.177
247.321
246.814
245.565
243.516
240.636
236.926
232.421
227.182
221.279
214.762
207.659
199.98
191.743
182.983
173.761
164.172
154.329
144.378
134.47
124.722
115.235
106.077
97.287
88.882
80.871
73.281
66.16
59.579
53.601
48.269
43.594
39.552
36.095
33.138
30.593
28.389
26.464
24.781
23.318
22.064
21.012
20.145
19.43
18.807
18.22
17.627
17.003
16.351
15.685
15.051
14.487
14.027
13.696
13.503
13.447
13.521
13.712
14.006
14.398
14.899
15.513
16.25
17.105
18.064
19.105
20.197
21.31
22.415
23.489
24.515
25.484
26.389
27.229
28.009
28.728
29.384
29.974
30.494
30.941
31.319
31.629
31.878
32.072
32.218
32.323
32.391
32.427
32.432
32.409
32.356
32.274
32.163
32.024
31.86
31.672
31.463
31.235
30.99
30.731
30.458
30.172
29.875
29.566
29.246
28.915
28.575
28.225
27.866
27.498
27.12
26.733
26.336
25.93
25.514
25.088
24.651
24.205
23.748
23.281
22.804
22.317
21.821
21.316
20.803
20.282
19.755
19.222
18.683
18.139
17.59
17.038
16.482
15.924
15.365
14.805
14.246
13.687
13.13
12.576
12.025
11.477
10.933
10.393
9.858
9.329
8.805
8.287
7.776
7.271
6.774
6.285
5.803
5.33
4.865
4.409
3.962
3.525
3.098
2.682
2.275
1.88
1.495
1.122
0.759
0.407
0.067
-0.262
-0.58
-0.887
-1.181
-1.464
-1.734
-1.991
-2.235
-2.466
-2.684
-2.889
-3.08
-3.259
-3.426
-3.582
-3.726
-3.862
-3.989
-4.11
-4.226
-4.34
-4.454
-4.569
-4.689
-4.816
-4.952
-5.101
-5.265
-5.445
-5.646
-5.87
-6.119
-6.396
-6.704
-7.045
-7.422
-7.837
-8.294
-8.794
-9.339
-9.93
-10.57
-11.26
-12
-12.791
-13.633
-14.525
-15.465
-16.452
-17.483
-18.555
-19.664
-20.805
-21.974
-23.166
-24.375
-25.595
-26.82
-28.043
-29.258
-30.457
-31.633
-32.778
-33.885
-34.947
-35.955
-36.902
-37.781
-38.585
-39.305
-39.937
-40.474
-40.91
-41.24
-41.458
-41.562
-41.549
-41.416
-41.163
-40.791
-40.3
-39.696
-38.984
-38.168
-37.258
-36.259
-35.182
-34.036
-32.83
-31.573
-30.277
-28.949
-27.602
-26.249
-24.903
-23.577
-22.285
-21.04
-19.853
-18.739
-17.709
-16.77
-15.928
-15.191
-14.57
-14.082
-13.742
-13.558
-13.534
-13.676
-13.982
-14.444
-15.05
-15.771
-16.581
-17.456
-18.374
-19.325
-20.293
-21.254
-22.182
-23.037
-23.784
-24.404
-24.882
-25.195
-25.342
-25.348
-25.253
-25.14
-25.08
-25.114
-25.292
-25.666
-26.288
-27.229
-28.562
-30.319
-32.544
-35.313
-38.627
-42.422
-46.543
-50.646
-54.341
-57.355
-59.42
-60.18
-59.439
-57.216
-53.735
-49.734
-46.105
-43.242
-41.296
-40.776
-42.082
-45.076
-49.343
-52.211
-49.115
-37.495
-16.67
10.806
38.658
63.337
87.268
118.801
170.121
250.704
358.867
478.844
587.044
658.285
676.168
640.505
561.552
454.056
330.793
200.418
70.565
-47.343
-136.981
-188.01
-198.66
-177.943
-145.226
-113.841
-89.692
-72.654
-56.003
-37.734
-19.969
-5.423
1.635
0.364
-6.965
-17.949
-29.663
-39.939
-48.088
-53.555
-55.773
-54.881
-51.376
-46.098
-40.399
-35.267
-31.083
-28.107
-26.492
-26.197
-27.16
-29.129
-31.563
-34.074
-36.455
-38.533
-40.268
-41.634
-42.558
-43.037
-43.128
-42.861
-42.27
-41.39
-40.215
-38.761
-37.065
-35.158
-33.093
-30.931
-28.725
-26.539
-24.421
-22.401
-20.509
-18.765
-17.182
-15.767
-14.518
-13.422
-12.472
-11.662
-10.983
-10.429
-9.983
-9.628
-9.344
-9.114
-8.922
-8.751
-8.585
-8.405
-8.195
-7.94
-7.626
-7.239
-6.766
-6.188
-5.489
-4.654
-3.665
-2.51
-1.172
0.362
2.106
4.07
6.263
8.693
11.365
14.284
17.452
20.87
24.534
28.443
32.591
36.971
41.575
46.391
51.407
56.608
61.979
67.501
73.156
78.921
84.775
90.694
96.654
102.629
108.593
114.52
120.382
126.154
131.806
137.312
142.645
147.777
152.684
157.338
161.717
165.798
169.559
172.98
176.044
178.734
181.035
182.934
184.421
185.487
186.123
186.326
186.092
185.422
184.315
182.777
180.814
178.432
175.643
172.458
168.891
164.957
160.674
156.06
151.134
145.92
140.438
134.713
128.769
122.632
116.328
109.883
103.325
96.679
89.973
83.232
76.483
69.752
63.063
56.44
49.906
43.484
37.194
31.056
25.089
19.309
13.731
8.37
3.238
-1.656
-6.301
-10.691
-14.82
-18.684
-22.28
-25.606
-28.664
-31.454
-33.981
-36.247
-38.26
-40.025
-41.552
-42.849
-43.926
-44.794
-45.464
-45.95
-46.262
-46.415
-46.42
-46.292
-46.044
-45.688
-45.238
-44.706
-44.105
-43.446
-42.741
-42.001
-41.235
-40.452
-39.663
-38.874
-38.093
-37.327
-36.582
-35.864
-35.177
-34.527
-33.916
-33.348
-32.825
-32.349
-31.922
-31.542
-31.211
-30.927
-30.69
-30.497
-30.348
-30.24
-30.171
-30.137
-30.138
-30.17
-30.23
-30.317
-30.428
-30.561
-30.714
-30.886
-31.075
-31.281
-31.502
-31.739
-31.991
-32.257
-32.537
-32.832
-33.14
-33.463
-33.799
-34.148
-34.512
-34.889
-35.28
-35.686
-36.107
-36.545
-36.998
-37.47
-37.959
-38.467
-38.995
-39.543
-40.111
-40.699
-41.309
-41.938
-42.588
-43.257
-43.944
-44.647
-45.365
-46.096
-46.837
-47.585
-48.339
-49.095
-49.851
-50.604
-51.353
-52.095
-52.827
-53.548
-54.256
-54.948
-55.625
-56.283
-56.921
-57.539
-58.135
-58.708
-59.257
-59.782
-60.282
-60.757
-61.206
-61.63
-62.03
-62.404
-62.756
-63.086
-63.395
-63.686
-63.962
-64.224
-64.475
-64.719
-64.958
-65.194
-65.431
-65.672
-65.918
-66.172
-66.437
-66.714
-67.005
-67.312
-67.634
-67.973
-68.329
-68.7
-69.087
-69.488
-69.901
-70.325
-70.757
-71.197
-71.639
-72.082
-72.522
-72.955
-73.377
-73.784
-74.169
-74.529
-74.858
-75.151
-75.402
-75.606
-75.758
-75.853
-75.886
-75.853
-75.749
-75.57
-75.313
-74.975
-74.554
-74.049
-73.459
-72.785
-72.029
-71.195
-70.288
-69.315
-68.281
-67.195
-66.063
-64.896
-63.701
-62.486
-61.259
-60.028
-58.804
-57.598
-56.423
-55.291
-54.213
-53.201
-52.263
-51.412
-50.656
-49.998
-49.442
-48.995
-48.665
-48.472
-48.431
-48.549
-48.833
-49.284
-49.897
-50.663
-51.567
-52.574
-53.653
-54.776
-55.918
-57.067
-58.205
-59.303
-60.324
-61.219
-61.944
-62.478
-62.801
-62.891
-62.757
-62.424
-61.947
-61.413
-60.891
-60.437
-60.116
-59.986
-60.127
-60.635
-61.573
-63.027
-65.122
-67.887
-71.29
-75.183
-79.215
-83.017
-86.277
-88.611
-89.623
-89.1
-86.993
-83.629
-79.783
-76.211
-73.467
-71.993
-72.137
-74.056
-77.553
-81.647
-84.474
-83.969
-78.371
-66.04
-45.255
-14.302
28.479
82.303
143.285
207.529
271.263
334.846
403.179
476.053
548.419
608.252
636.368
622.274
564.26
467.715
348.361
220.057
95.747
-8.761
-83.852
-124.998
-135.364
-128.632
-117.155
-107.917
-102.175
-94.742
-82.947
-68.37
-53.749
-43.272
-38.865
-39.725
-44.872
-52.523
-60.412
-67.066
-71.64
-73.659
-73.29
-70.867
-66.42
-60.45
-54.036
-48.008
-42.899
-38.988
-36.152
-34.302
-33.586
-33.912
-34.936
-36.38
-37.987
-39.598
-41.208
-42.747
-44.054
-45.042
-45.681
-45.963
-45.921
-45.568
-44.889
-43.899
-42.631
-41.124
-39.425
-37.574
-35.604
-33.558
-31.484
-29.431
-27.451
-25.582
-23.845
-22.257
-20.822
-19.537
-18.395
-17.381
-16.474
-15.657
-14.91
-14.217
-13.562
-12.926
-12.291
-11.638
-10.947
-10.198
-9.376
-8.463
-7.444
-6.306
-5.037
-3.626
-2.063
-0.338
1.557
3.633
5.9
8.367
11.041
13.929
17.038
20.371
23.929
27.714
31.721
35.948
40.388
45.034
49.877
54.907
60.111
65.477
70.988
76.63
82.383
88.229
94.147
100.117
106.115
112.119
118.105
124.05
129.93
135.719
141.395
146.932
152.306
157.494
162.471
167.214
171.7
175.907
179.815
183.403
186.653
189.55
192.079
194.227
195.983
197.338
198.284
198.816
198.931
198.627
197.904
196.765
195.215
193.26
190.909
188.173
185.063
181.593
177.778
173.636
169.183
164.44
159.425
154.161
148.67
142.975
137.101
131.071
124.912
118.649
112.307
105.911
99.486
93.056
86.646
80.279
73.975
67.758
61.646
55.66
49.816
44.132
38.622
33.299
28.177
23.264
18.57
14.102
9.866
5.866
2.107
-1.412
-4.688
-7.722
-10.517
-13.075
-15.401
-17.499
-19.378
-21.043
-22.503
-23.767
-24.846
-25.747
-26.483
-27.065
-27.502
-27.807
-27.99
-28.063
-28.037
-27.923
-27.732
-27.474
-27.158
-26.794
-26.39
-25.956
-25.498
-25.024
-24.541
-24.055
-23.572
-23.097
-22.636
-22.193
-21.773
-21.379
-21.014
-20.681
-20.383
-20.122
-19.9
-19.717
-19.575
-19.475
-19.416
-19.399
-19.423
-19.489
-19.595
-19.741
-19.927
-20.15
-20.411
-20.708
-21.04
-21.408
-21.809
-22.244
-22.712
-23.212
-23.743
-24.306
-24.899
-25.522
-26.174
-26.854
-27.562
-28.296
-29.055
-29.839
-30.645
-31.473
-32.322
-33.189
-34.075
-34.976
-35.893
-36.823
-37.764
-38.716
-39.678
-40.646
-41.621
-42.6
-43.581
-44.563
-45.545
-46.523
-47.496
-48.462
-49.419
-50.363
-51.294
-52.207
-53.102
-53.975
-54.824
-55.647
-56.442
-57.206
-57.938
-58.636
-59.299
-59.924
-60.51
-61.057
-61.563
-62.027
-62.449
-62.828
-63.163
-63.455
-63.704
-63.909
-64.07
-64.189
-64.265
-64.3
-64.294
-64.248
-64.165
-64.045
-63.89
-63.703
-63.486
-63.24
-62.969
-62.675
-62.36
-62.027
-61.679
-61.318
-60.948
-60.57
-60.188
-59.805
-59.422
-59.044
-58.67
-58.305
-57.951
-57.608
-57.28
-56.968
-56.673
-56.398
-56.143
-55.91
-55.701
-55.515
-55.355
-55.22
-55.111
-55.028
-54.971
-54.94
-54.935
-54.955
-55
-55.07
-55.163
-55.279
-55.418
-55.577
-55.757
-55.956
-56.173
-56.406
-56.653
-56.915
-57.188
-57.471
-57.763
-58.063
-58.368
-58.676
-58.985
-59.294
-59.599
-59.899
-60.189
-60.468
-60.732
-60.979
-61.206
-61.409
-61.587
-61.736
-61.853
-61.935
-61.98
-61.983
-61.942
-61.852
-61.712
-61.517
-61.265
-60.954
-60.579
-60.14
-59.633
-59.056
-58.409
-57.689
-56.894
-56.025
-55.081
-54.063
-52.972
-51.81
-50.581
-49.289
-47.941
-46.542
-45.098
-43.618
-42.11
-40.582
-39.041
-37.497
-35.958
-34.431
-32.926
-31.454
-30.025
-28.651
-27.341
-26.107
-24.961
-23.914
-22.977
-22.161
-21.471
-20.913
-20.494
-20.224
-20.118
-20.183
-20.423
-20.839
-21.429
-22.19
-23.111
-24.173
-25.34
-26.574
-27.843
-29.118
-30.38
-31.609
-32.779
-33.858
-34.809
-35.605
-36.235
-36.693
-36.971
-37.068
-36.996
-36.805
-36.597
-36.472
-36.528
-36.834
-37.421
-38.336
-39.641
-41.402
-43.678
-46.477
-49.75
-53.475
-57.697
-62.423
-67.567
-72.849
-77.778
-81.916
-84.948
-86.514
-86.174
-83.581
-78.582
-71.522
-63.238
-54.417
-45.709
-38.089
-32.52
-29.655
-28.552
-26.221
-19.563
-7.082
8.615
23.252
35.561
48.589
72.818
119.415
193.631
294.601
410.843
526.689
626.612
695.844
724.98
707.958
644.649
539.081
399.941
244.544
90.573
-41.01
-130.691
-173.083
-168.865
-128.916
-74.356
-21.06
15.99
27.741
18.358
-4.668
-29.727
-46.435
-53.202
-52.484
-49.873
-49.741
-51.962
-54.852
-55.968
-54.195
-50.273
-45.182
-39.911
-35.114
-31.058
-27.916
-25.776
-24.58
-24.19
-24.501
-25.429
-26.878
-28.743
-30.908
-33.272
-35.752
-38.266
-40.694
-42.902
-44.787
-46.288
-47.38
-48.057
-48.32
-48.174
-47.644
-46.77
-45.591
-44.145
-42.467
-40.59
-38.561
-36.432
-34.263
-32.114
-30.028
-28.035
-26.154
-24.394
-22.76
-21.251
-19.859
-18.567
-17.364
-16.24
-15.188
-14.2
-13.265
-12.367
-11.492
-10.624
-9.75
-8.858
-7.939
-6.981
-5.977
-4.918
-3.799
-2.611
-1.346
0.011
1.472
3.05
4.757
6.605
8.602
10.76
13.087
15.585
18.261
21.12
24.169
27.422
30.888
34.562
38.438
42.503
46.733
51.109
55.609
60.199
64.856
69.564
74.315
79.117
83.98
88.898
93.857
98.831
103.789
108.723
113.628
118.5
123.353
128.195
133.04
137.926
142.87
147.857
152.85
157.774
162.539
167.08
171.348
175.309
178.936
182.185
185.009
187.375
189.23
190.524
191.196
191.151
190.321
188.689
186.269
183.126
179.354
175.019
170.176
164.882
159.175
153.106
146.726
140.067
133.172
126.094
118.903
111.699
104.57
97.562
90.7
83.972
77.344
70.801
64.338
57.94
51.612
45.357
39.183
33.116
27.185
21.402
15.77
10.276
4.905
-0.337
-5.436
-10.369
-15.1
-19.603
-23.859
-27.841
-31.533
-34.926
-38.015
-40.81
-43.323
-45.563
-47.537
-49.247
-50.696
-51.892
-52.846
-53.569
-54.077
-54.385
-54.508
-54.464
-54.272
-53.946
-53.501
-52.948
-52.298
-51.561
-50.75
-49.876
-48.949
-47.984
-46.989
-45.977
-44.959
-43.946
-42.946
-41.967
-41.017
-40.1
-39.223
-38.39
-37.605
-36.87
-36.189
-35.562
-34.991
-34.476
-34.018
-33.617
-33.27
-32.977
-32.736
-32.545
-32.402
-32.304
-32.249
-32.234
-32.256
-32.313
-32.402
-32.519
-32.663
-32.83
-33.018
-33.222
-33.441
-33.671
-33.91
-34.156
-34.407
-34.662
-34.919
-35.178
-35.437
-35.697
-35.956
-36.215
-36.472
-36.729
-36.985
-37.241
-37.496
-37.752
-38.01
-38.268
-38.529
-38.793
-39.06
-39.33
-39.605
-39.883
-40.167
-40.455
-40.748
-41.047
-41.352
-41.663
-41.98
-42.302
-42.63
-42.963
-43.3
-43.641
-43.983
-44.326
-44.67
-45.013
-45.354
-45.693
-46.028
-46.358
-46.683
-47.002
-47.313
-47.615
-47.908
-48.19
-48.46
-48.718
-48.963
-49.195
-49.412
-49.615
-49.803
-49.975
-50.13
-50.269
-50.391
-50.495
-50.58
-50.647
-50.696
-50.726
-50.74
-50.737
-50.717
-50.682
-50.631
-50.565
-50.486
-50.391
-50.279
-50.15
-50.011
-49.863
-49.711
-49.554
-49.389
-49.219
-49.056
-48.898
-48.723
-48.515
-48.255
-47.945
-47.621
-47.29
-46.92
-46.537
-46.222
-46.04
-46.059
-46.292
-46.64
-47.075
-47.705
-48.426
-48.852
-48.898
-48.683
-48.158
-47.733
-46.666
-42.549
-35.849
-28.801
-25.007
-31.319
-47.458
-66.511
-81.638
-83.117
-70.137
-51.929
-35.637
-28.921
-33.268
-41.785
-50.189
-55.611
-57.11
-57.485
-58.04
-58.666
-59.458
-59.992
-60.146
-60.294
-60.548
-60.836
-61.161
-61.534
-61.935
-62.339
-62.708
-62.969
-63.098
-63.12
-63.039
-62.851
-62.552
-62.138
-61.609
-60.973
-60.231
-59.38
-58.419
-57.351
-56.179
-54.907
-53.543
-52.096
-50.575
-48.992
-47.357
-45.682
-43.981
-42.266
-40.55
-38.842
-37.153
-35.496
-33.883
-32.329
-30.848
-29.451
-28.152
-26.96
-25.887
-24.943
-24.134
-23.459
-22.921
-22.525
-22.282
-22.209
-22.318
-22.614
-23.1
-23.773
-24.627
-25.652
-26.824
-28.103
-29.453
-30.839
-32.231
-33.615
-34.962
-36.236
-37.391
-38.375
-39.147
-39.682
-39.958
-39.966
-39.717
-39.239
-38.59
-37.853
-37.112
-36.455
-35.965
-35.717
-35.79
-36.257
-37.214
-38.796
-41.068
-43.991
-47.418
-51.058
-54.593
-57.769
-60.257
-61.584
-61.405
-59.664
-56.663
-53.129
-49.844
-47.27
-45.788
-45.997
-48.301
-52.464
-57.505
-61.513
-62.231
-58.007
-47.2
-27.522
3.161
46.363
100.855
162.109
225.956
288.834
351.879
420.41
492.667
562.699
617.62
636.128
609.048
536.623
424.935
293.41
157.949
29.321
-77.687
-153.466
-193.196
-193.276
-160.419
-109.987
-56.555
-15.768
2.318
-0.474
-17.526
-37.58
-50.582
-54.283
-50.795
-45.681
-43.076
-42.999
-43.944
-43.528
-40.782
-36.478
-31.497
-26.672
-22.529
-19.239
-16.926
-15.665
-15.341
-15.757
-16.759
-18.221
-20.045
-22.124
-24.337
-26.555
-28.663
-30.569
-32.197
-33.487
-34.401
-34.92
-35.039
-34.769
-34.142
-33.197
-31.975
-30.515
-28.851
-27.011
-25.041
-22.988
-20.906
-18.849
-16.856
-14.951
-13.154
-11.475
-9.916
-8.476
-7.142
-5.894
-4.717
-3.599
-2.53
-1.503
-0.503
0.484
1.474
2.482
3.521
4.604
5.744
6.952
8.238
9.612
11.081
12.65
14.329
16.127
18.053
20.116
22.325
24.688
27.213
29.906
32.774
35.82
39.048
42.457
46.048
49.821
53.772
57.899
62.195
66.656
71.272
76.036
80.936
85.962
91.1
96.338
101.659
107.049
112.491
117.967
123.459
128.947
134.411
139.831
145.186
150.454
155.613
160.641
165.515
170.214
174.715
178.998
183.041
186.824
190.328
193.536
196.429
198.992
201.21
203.071
204.562
205.673
206.396
206.723
206.649
206.171
205.286
203.994
202.295
200.194
197.695
194.805
191.531
187.884
183.876
179.521
174.834
169.832
164.533
158.956
153.124
147.058
140.781
134.316
127.69
120.925
114.049
107.087
100.063
93.005
85.937
78.883
71.869
64.917
58.05
51.291
44.66
38.176
31.86
25.729
19.798
14.084
8.599
3.357
-1.634
-6.364
-10.825
-15.013
-18.924
-22.556
-25.909
-28.983
-31.781
-34.309
-36.57
-38.573
-40.325
-41.836
-43.116
-44.176
-45.028
-45.684
-46.158
-46.461
-46.609
-46.614
-46.49
-46.251
-45.911
-45.483
-44.981
-44.418
-43.807
-43.159
-42.487
-41.802
-41.114
-40.432
-39.767
-39.125
-38.514
-37.94
-37.409
-36.925
-36.493
-36.115
-35.793
-35.529
-35.323
-35.176
-35.086
-35.053
-35.075
-35.149
-35.274
-35.447
-35.664
-35.923
-36.22
-36.552
-36.915
-37.305
-37.72
-38.154
-38.604
-39.068
-39.541
-40.02
-40.503
-40.987
-41.469
-41.947
-42.419
-42.884
-43.341
-43.787
-44.222
-44.646
-45.057
-45.456
-45.842
-46.215
-46.576
-46.924
-47.259
-47.582
-47.893
-48.193
-48.48
-48.757
-49.022
-49.275
-49.518
-49.749
-49.969
-50.177
-50.374
-50.559
-50.732
-50.892
-51.039
-51.172
-51.289
-51.391
-51.476
-51.542
-51.59
-51.618
-51.625
-51.61
-51.573
-51.514
-51.432
-51.327
-51.199
-51.05
-50.879
-50.689
-50.48
-50.254
-50.013
-49.758
-49.492
-49.218
-48.938
-48.654
-48.37
-48.088
-47.812
-47.543
-47.285
-47.042
-46.815
-46.608
-46.424
-46.265
-46.136
-46.038
-45.973
-45.944
-45.954
-46.003
-46.092
-46.221
-46.392
-46.602
-46.852
-47.137
-47.457
-47.807
-48.183
-48.582
-48.998
-49.427
-49.862
-50.297
-50.725
-51.141
-51.538
-51.909
-52.246
-52.544
-52.795
-52.994
-53.133
-53.207
-53.209
-53.133
-52.976
-52.731
-52.396
-51.965
-51.437
-50.808
-50.079
-49.248
-48.318
-47.289
-46.166
-44.955
-43.663
-42.298
-40.87
-39.389
-37.867
-36.316
-34.749
-33.178
-31.615
-30.071
-28.561
-27.096
-25.692
-24.363
-23.122
-21.983
-20.958
-20.06
-19.3
-18.682
-18.212
-17.895
-17.738
-17.757
-17.961
-18.357
-18.948
-19.738
-20.725
-21.901
-23.248
-24.733
-26.326
-27.995
-29.712
-31.462
-33.22
-34.955
-36.634
-38.212
-39.655
-40.939
-42.038
-42.921
-43.582
-44.041
-44.344
-44.576
-44.801
-45.056
-45.396
-45.862
-46.498
-47.37
-48.535
-50.031
-51.949
-54.394
-57.378
-60.886
-64.806
-68.784
-72.408
-75.28
-76.887
-76.714
-74.603
-70.509
-64.485
-57.497
-50.837
-45.337
-42.277
-41.865
-42.056
-42.731
-44.634
-48.458
-57.8
-69.89
-75.086
-63.975
-25.033
42.371
125.907
214.4
295.562
367.008
438.594
511.65
582.878
641.336
664.597
642.715
575.152
465.811
332.287
190.176
53.293
-58.776
-134.161
-169.053
-166.529
-141.54
-110.611
-83.236
-63.533
-49.237
-35.485
-21.576
-9.108
-0.779
0.136
-6.396
-18.253
-32.803
-46.91
-58.848
-68.177
-74.455
-77.384
-77.131
-74.153
-69.457
-64.5
-60.127
-56.637
-54.256
-53.062
-53.081
-54.299
-56.427
-58.95
-61.531
-64.013
-66.283
-68.29
-69.962
-71.2
-71.986
-72.367
-72.381
-72.043
-71.362
-70.334
-68.976
-67.329
-65.43
-63.315
-61.028
-58.616
-56.131
-53.632
-51.167
-48.77
-46.468
-44.283
-42.226
-40.305
-38.519
-36.858
-35.314
-33.881
-32.548
-31.306
-30.143
-29.043
-27.99
-26.97
-25.967
-24.966
-23.954
-22.914
-21.834
-20.7
-19.501
-18.227
-16.865
-15.404
-13.831
-12.135
-10.304
-8.326
-6.193
-3.893
-1.418
1.24
4.085
7.123
10.356
13.787
17.415
21.239
25.255
29.459
33.844
38.402
43.125
47.999
53.014
58.155
63.405
68.75
74.17
79.646
85.158
90.685
96.205
101.696
107.135
112.499
117.766
122.911
127.913
132.748
137.393
141.827
146.026
149.971
153.64
157.016
160.079
162.814
165.205
167.239
168.903
170.187
171.083
171.582
171.681
171.376
170.665
169.549
168.03
166.114
163.806
161.116
158.054
154.631
150.863
146.763
142.349
137.639
132.651
127.407
121.928
116.237
110.356
104.311
98.126
91.826
85.439
78.988
72.501
66.002
59.517
53.069
46.684
40.383
34.189
28.124
22.207
16.458
10.893
5.529
0.38
-4.541
-9.222
-13.655
-17.832
-21.746
-25.393
-28.771
-31.876
-34.709
-37.271
-39.564
-41.593
-43.363
-44.88
-46.153
-47.19
-48.001
-48.598
-48.991
-49.194
-49.219
-49.078
-48.786
-48.355
-47.799
-47.133
-46.369
-45.52
-44.601
-43.623
-42.598
-41.539
-40.455
-39.357
-38.255
-37.156
-36.069
-35.002
-33.96
-32.952
-31.981
-31.054
-30.175
-29.347
-28.574
-27.858
-27.201
-26.603
-26.066
-25.589
-25.172
-24.814
-24.514
-24.27
-24.081
-23.945
-23.859
-23.822
-23.83
-23.881
-23.973
-24.104
-24.271
-24.471
-24.703
-24.965
-25.256
-25.573
-25.915
-26.281
-26.668
-27.076
-27.503
-27.946
-28.404
-28.876
-29.36
-29.854
-30.356
-30.866
-31.382
-31.903
-32.427
-32.954
-33.482
-34.011
-34.54
-35.067
-35.592
-36.113
-36.631
-37.143
-37.65
-38.15
-38.641
-39.124
-39.596
-40.056
-40.504
-40.937
-41.355
-41.756
-42.14
-42.504
-42.85
-43.177
-43.484
-43.771
-44.039
-44.288
-44.518
-44.73
-44.924
-45.101
-45.262
-45.406
-45.535
-45.648
-45.748
-45.834
-45.906
-45.967
-46.015
-46.053
-46.08
-46.097
-46.105
-46.105
-46.098
-46.084
-46.065
-46.042
-46.015
-45.986
-45.956
-45.925
-45.894
-45.863
-45.832
-45.801
-45.771
-45.74
-45.709
-45.677
-45.643
-45.609
-45.572
-45.534
-45.493
-45.451
-45.406
-45.359
-45.311
-45.261
-45.21
-45.159
-45.108
-45.057
-45.008
-44.96
-44.915
-44.873
-44.834
-44.799
-44.767
-44.741
-44.719
-44.704
-44.694
-44.692
-44.697
-44.711
-44.735
-44.77
-44.815
-44.873
-44.944
-45.028
-45.126
-45.237
-45.362
-45.499
-45.649
-45.808
-45.977
-46.151
-46.329
-46.508
-46.686
-46.858
-47.023
-47.176
-47.314
-47.433
-47.53
-47.601
-47.641
-47.647
-47.615
-47.54
-47.419
-47.248
-47.022
-46.739
-46.393
-45.983
-45.504
-44.953
-44.327
-43.625
-42.844
-41.985
-41.046
-40.029
-38.937
-37.773
-36.541
-35.248
-33.898
-32.501
-31.064
-29.594
-28.102
-26.596
-25.083
-23.574
-22.078
-20.606
-19.167
-17.773
-16.435
-15.164
-13.972
-12.872
-11.876
-10.994
-10.231
-9.594
-9.089
-8.727
-8.52
-8.478
-8.604
-8.9
-9.368
-10.005
-10.804
-11.748
-12.8
-13.926
-15.094
-16.276
-17.457
-18.619
-19.737
-20.779
-21.711
-22.508
-23.16
-23.659
-23.99
-24.146
-24.131
-23.993
-23.832
-23.742
-23.803
-24.068
-24.551
-25.287
-26.344
-27.78
-29.654
-32.002
-34.799
-38.063
-41.895
-46.276
-51.067
-55.949
-60.323
-63.646
-65.562
-65.638
-63.443
-58.893
-52.117
-43.737
-35.032
-27.096
-20.761
-16.943
-16.159
-18.112
-21.939
-25.813
-27.025
-22.956
-10.905
11.948
47.947
96.629
154.833
219.254
285.569
353.74
427.789
504.711
578.355
636.83
660.169
640.28
576.422
472.595
347.814
217.677
97.013
5.006
-53.182
-78.14
-76.384
-65.003
-53.658
-46.119
-42.857
-38.065
-30.216
-21.475
-13.823
-10.522
-12.412
-17.854
-25.316
-32.925
-38.988
-42.893
-44.445
-43.693
-41.17
-37.51
-33.261
-29.065
-25.554
-23.032
-21.614
-21.293
-21.879
-23.207
-25.156
-27.548
-30.223
-33.062
-35.956
-38.813
-41.549
-44.042
-46.198
-47.955
-49.27
-50.133
-50.545
-50.509
-50.057
-49.232
-48.077
-46.635
-44.941
-43.027
-40.939
-38.729
-36.454
-34.174
-31.933
-29.762
-27.685
-25.718
-23.867
-22.134
-20.512
-18.984
-17.541
-16.175
-14.879
-13.65
-12.478
-11.35
-10.254
-9.177
-8.107
-7.032
-5.941
-4.821
-3.664
-2.458
-1.196
0.13
1.531
3.017
4.601
6.295
8.11
10.059
12.153
14.403
16.818
19.409
22.181
25.141
28.294
31.644
35.193
38.943
42.893
47.041
51.383
55.914
60.627
65.514
70.564
75.766
81.106
86.569
92.138
97.797
103.525
109.302
115.107
120.917
126.708
132.456
138.136
143.722
149.187
154.507
159.653
164.601
169.325
173.799
178.001
181.905
185.491
188.737
191.623
194.132
196.248
197.955
199.242
200.097
200.512
200.481
200
199.069
197.686
195.856
193.585
190.879
187.75
184.21
180.273
175.958
171.281
166.266
160.933
155.308
149.417
143.286
136.945
130.42
123.743
116.944
110.052
103.099
96.115
89.13
82.174
75.276
68.464
61.765
55.206
48.811
42.603
36.602
30.829
25.3
20.032
15.037
10.328
5.912
1.798
-2.01
-5.511
-8.702
-11.587
-14.169
-16.455
-18.451
-20.168
-21.616
-22.808
-23.756
-24.475
-24.981
-25.29
-25.419
-25.384
-25.205
-24.898
-24.483
-23.978
-23.399
-22.766
-22.094
-21.4
-20.698
-20.005
-19.333
-18.694
-18.102
-17.565
-17.093
-16.694
-16.374
-16.139
-15.992
-15.935
-15.971
-16.098
-16.315
-16.621
-17.012
-17.485
-18.036
-18.66
-19.351
-20.105
-20.915
-21.774
-22.676
-23.614
-24.581
-25.57
-26.575
-27.59
-28.608
-29.623
-30.63
-31.625
-32.602
-33.557
-34.487
-35.389
-36.26
-37.098
-37.902
-38.672
-39.407
-40.109
-40.78
-41.421
-42.034
-42.623
-43.19
-43.739
-44.272
-44.793
-45.305
-45.812
-46.315
-46.819
-47.327
-47.84
-48.363
-48.897
-49.445
-50.008
-50.588
-51.185
-51.801
-52.437
-53.091
-53.766
-54.46
-55.173
-55.904
-56.652
-57.417
-58.195
-58.985
-59.784
-60.59
-61.398
-62.206
-63.011
-63.809
-64.597
-65.372
-66.131
-66.871
-67.589
-68.283
-68.95
-69.587
-70.193
-70.766
-71.304
-71.806
-72.27
-72.697
-73.085
-73.434
-73.744
-74.014
-74.246
-74.438
-74.592
-74.707
-74.785
-74.826
-74.832
-74.803
-74.741
-74.649
-74.527
-74.379
-74.206
-74.011
-73.795
-73.56
-73.31
-73.046
-72.771
-72.486
-72.194
-71.897
-71.597
-71.297
-70.999
-70.704
-70.416
-70.134
-69.862
-69.602
-69.354
-69.121
-68.905
-68.708
-68.531
-68.377
-68.247
-68.142
-68.065
-68.016
-67.997
-68.007
-68.048
-68.12
-68.222
-68.357
-68.522
-68.718
-68.945
-69.203
-69.489
-69.804
-70.146
-70.514
-70.907
-71.323
-71.76
-72.216
-72.69
-73.179
-73.682
-74.195
-74.718
-75.246
-75.777
-76.307
-76.835
-77.356
-77.867
-78.365
-78.847
-79.311
-79.753
-80.172
-80.564
-80.927
-81.259
-81.558
-81.822
-82.049
-82.235
-82.381
-82.484
-82.543
-82.556
-82.523
-82.442
-82.312
-82.131
-81.9
-81.616
-81.279
-80.887
-80.441
-79.939
-79.383
-78.772
-78.106
-77.386
-76.614
-75.791
-74.918
-73.997
-73.029
-72.015
-70.959
-69.862
-68.728
-67.56
-66.36
-65.135
-63.89
-62.629
-61.36
-60.088
-58.818
-57.557
-56.313
-55.09
-53.894
-52.731
-51.606
-50.529
-49.507
-48.547
-47.658
-46.847
-46.121
-45.487
-44.952
-44.514
-44.176
-43.939
-43.809
-43.794
-43.903
-44.137
-44.498
-44.985
-45.595
-46.321
-47.143
-48.029
-48.95
-49.879
-50.793
-51.682
-52.527
-53.303
-53.985
-54.538
-54.937
-55.17
-55.222
-55.073
-54.721
-54.185
-53.524
-52.831
-52.19
-51.658
-51.274
-51.08
-51.141
-51.529
-52.31
-53.543
-55.241
-57.439
-60.241
-63.659
-67.587
-71.787
-75.799
-79.169
-81.609
-82.742
-82.115
-79.593
-75.223
-69.432
-63.239
-57.469
-52.653
-49.525
-48.679
-50.033
-53.086
-56.489
-57.939
-55.296
-46.441
-28.893
-0.199
40.104
89.964
146.443
205.326
265.331
330.498
401.967
476.803
547.093
593.772
599.323
555.348
458.854
323.187
172.152
27.543
-86.267
-154.638
-179.687
-169.883
-142.277
-114.735
-94.107
-81.782
-74.55
-66.771
-57.799
-49.471
-43.828
-43.079
-46.802
-52.962
-59.577
-64.649
-67.265
-67.407
-65.271
-61.402
-56.425
-50.91
-45.519
-40.872
-37.268
-34.79
-33.387
-32.857
-33.041
-33.806
-34.985
-36.432
-38.023
-39.653
-41.23
-42.652
-43.829
-44.697
-45.207
-45.336
-45.082
-44.447
-43.451
-42.139
-40.55
-38.721
-36.684
-34.462
-32.091
-29.617
-27.093
-24.577
-22.114
-19.732
-17.457
-15.305
-13.283
-11.393
-9.628
-7.965
-6.393
-4.9
-3.478
-2.123
-0.825
0.431
1.657
2.867
4.074
5.288
6.523
7.789
9.099
10.461
11.882
13.37
14.932
16.579
18.322
20.17
22.134
24.223
26.448
28.817
31.34
34.023
36.873
39.894
43.091
46.466
50.022
53.759
57.676
61.771
66.042
70.483
75.09
79.854
84.768
89.821
95.003
100.301
105.701
111.188
116.745
122.355
128
133.659
139.313
144.939
150.517
156.023
161.434
166.729
171.883
176.872
181.675
186.267
190.627
194.733
198.564
202.1
205.323
208.214
210.757
212.938
214.742
216.158
217.175
217.784
217.979
217.755
217.109
216.041
214.551
212.644
210.324
207.6
204.481
200.98
197.108
192.882
188.319
183.436
178.255
172.796
167.083
161.138
154.987
148.655
142.168
135.553
128.836
122.044
115.205
108.343
101.487
94.662
87.892
81.204
74.619
68.162
61.852
55.711
49.757
44.007
38.477
33.18
28.128
23.331
18.799
14.539
10.554
6.85
3.427
0.287
-2.573
-5.154
-7.46
-9.497
-11.272
-12.791
-14.062
-15.097
-15.903
-16.493
-16.877
-17.067
-17.076
-16.917
-16.604
-16.149
-15.566
-14.869
-14.071
-13.186
-12.226
-11.204
-10.131
-9.02
-7.88
-6.722
-5.556
-4.39
-3.233
-2.091
-0.972
0.118
1.174
2.191
3.164
4.091
4.967
5.79
6.557
7.267
7.917
8.507
9.035
9.501
9.906
10.25
10.534
10.76
10.931
11.047
11.113
11.13
11.102
11.032
10.923
10.778
10.6
10.393
10.159
9.901
9.623
9.326
9.014
8.689
8.353
8.009
7.657
7.301
6.943
6.585
6.229
5.878
5.532
5.195
4.868
4.553
4.251
3.963
3.689
3.429
3.184
2.953
2.735
2.528
2.332
2.145
1.965
1.79
1.618
1.447
1.275
1.1
0.92
0.733
0.538
0.334
0.117
-0.112
-0.356
-0.615
-0.891
-1.186
-1.501
-1.837
-2.195
-2.577
-2.983
-3.415
-3.872
-4.354
-4.862
-5.395
-5.951
-6.53
-7.129
-7.746
-8.379
-9.025
-9.682
-10.345
-11.012
-11.68
-12.345
-13.006
-13.658
-14.299
-14.928
-15.541
-16.136
-16.713
-17.268
-17.802
-18.312
-18.797
-19.258
-19.693
-20.102
-20.485
-20.843
-21.175
-21.482
-21.766
-22.027
-22.268
-22.49
-22.697
-22.891
-23.075
-23.254
-23.431
-23.61
-23.794
-23.989
-24.196
-24.42
-24.663
-24.929
-25.22
-25.536
-25.881
-26.256
-26.66
-27.095
-27.56
-28.054
-28.576
-29.123
-29.694
-30.285
-30.894
-31.516
-32.149
-32.788
-33.43
-34.068
-34.699
-35.317
-35.916
-36.491
-37.036
-37.544
-38.01
-38.428
-38.793
-39.101
-39.347
-39.529
-39.645
-39.694
-39.676
-39.593
-39.446
-39.238
-38.972
-38.653
-38.282
-37.866
-37.41
-36.919
-36.402
-35.867
-35.324
-34.782
-34.251
-33.743
-33.267
-32.833
-32.448
-32.119
-31.853
-31.663
-31.564
-31.57
-31.694
-31.943
-32.324
-32.841
-33.491
-34.26
-35.121
-36.048
-37.014
-37.996
-38.978
-39.942
-40.864
-41.714
-42.454
-43.052
-43.486
-43.741
-43.806
-43.675
-43.366
-42.939
-42.487
-42.106
-41.887
-41.883
-42.149
-42.769
-43.82
-45.392
-47.58
-50.405
-53.89
-58.117
-63.064
-68.625
-74.611
-80.579
-86.026
-90.64
-94.069
-95.859
-95.835
-93.998
-90.516
-86.168
-81.822
-77.829
-74.519
-72.592
-72.332
-73.214
-74.633
-73.948
-66.583
-51.106
-27.156
4.896
38.709
72.133
110.009
155.959
220.841
312.462
420.904
531.7
622.208
667.196
660.587
606.721
516.393
406.696
288.603
169.113
58.777
-30.778
-92.788
-123.311
-126.742
-115.54
-94.885
-70.45
-48.366
-29.149
-19.831
-22.78
-32.037
-44.748
-54.954
-60.118
-64.789
-70.131
-76.638
-84.393
-90.396
-93.427
-93.846
-91.562
-87.462
-82.844
-78.311
-74.318
-71.242
-69.009
-67.553
-67.091
-67.576
-68.707
-70.275
-72.042
-73.852
-75.753
-77.713
-79.601
-81.316
-82.769
-83.9
-84.722
-85.223
-85.371
-85.154
-84.572
-83.648
-82.437
-80.981
-79.316
-77.475
-75.484
-73.383
-71.219
-69.039
-66.893
-64.819
-62.835
-60.956
-59.192
-57.543
-56.012
-54.59
-53.255
-51.995
-50.797
-49.65
-48.547
-47.479
-46.429
-45.384
-44.328
-43.246
-42.128
-40.96
-39.73
-38.427
-37.042
-35.564
-33.987
-32.303
-30.501
-28.574
-26.509
-24.3
-21.936
-19.412
-16.72
-13.855
-10.813
-7.593
-4.193
-0.615
3.14
7.068
11.167
15.43
19.849
24.419
29.127
33.964
38.918
43.976
49.122
54.341
59.618
64.934
70.272
75.613
80.938
86.227
91.46
96.615
101.672
106.608
111.404
116.037
120.487
124.734
128.757
132.538
136.06
139.305
142.258
144.905
147.231
149.226
150.879
152.179
153.12
153.696
153.901
153.733
153.19
152.274
150.987
149.332
147.316
144.945
142.228
139.176
135.8
132.113
128.131
123.869
119.346
114.581
109.592
104.401
99.028
93.497
87.829
82.046
76.172
70.228
64.236
58.221
52.203
46.204
40.247
34.35
28.536
22.823
17.228
11.771
6.465
1.328
-3.629
-8.391
-12.947
-17.288
-21.404
-25.287
-28.93
-32.33
-35.483
-38.386
-41.039
-43.443
-45.599
-47.511
-49.183
-50.618
-51.824
-52.806
-53.572
-54.129
-54.486
-54.651
-54.636
-54.449
-54.102
-53.605
-52.971
-52.21
-51.333
-50.353
-49.28
-48.126
-46.902
-45.62
-44.29
-42.923
-41.531
-40.122
-38.707
-37.296
-35.896
-34.516
-33.163
-31.845
-30.568
-29.336
-28.157
-27.035
-25.975
-24.981
-24.057
-23.207
-22.432
-21.736
-21.119
-20.583
-20.129
-19.755
-19.462
-19.248
-19.113
-19.055
-19.072
-19.16
-19.318
-19.542
-19.828
-20.172
-20.571
-21.019
-21.512
-22.046
-22.616
-23.218
-23.848
-24.501
-25.173
-25.859
-26.556
-27.258
-27.96
-28.659
-29.35
-30.028
-30.69
-31.331
-31.948
-32.538
-33.098
-33.626
-34.118
-34.573
-34.989
-35.364
-35.697
-35.988
-36.236
-36.44
-36.603
-36.723
-36.802
-36.842
-36.843
-36.806
-36.733
-36.626
-36.485
-36.313
-36.111
-35.882
-35.627
-35.35
-35.053
-34.739
-34.411
-34.072
-33.725
-33.374
-33.02
-32.667
-32.318
-31.975
-31.641
-31.319
-31.012
-30.72
-30.447
-30.194
-29.963
-29.754
-29.569
-29.408
-29.272
-29.162
-29.077
-29.019
-28.987
-28.982
-29.005
-29.054
-29.131
-29.234
-29.362
-29.515
-29.691
-29.889
-30.107
-30.345
-30.599
-30.868
-31.151
-31.445
-31.749
-32.06
-32.376
-32.695
-33.015
-33.334
-33.651
-33.964
-34.271
-34.572
-34.866
-35.152
-35.429
-35.698
-35.957
-36.206
-36.445
-36.672
-36.889
-37.094
-37.288
-37.472
-37.646
-37.811
-37.968
-38.119
-38.263
-38.402
-38.538
-38.671
-38.802
-38.933
-39.066
-39.201
-39.34
-39.485
-39.636
-39.795
-39.962
-40.136
-40.319
-40.508
-40.704
-40.904
-41.107
-41.312
-41.518
-41.722
-41.923
-42.118
-42.305
-42.481
-42.643
-42.787
-42.911
-43.009
-43.079
-43.118
-43.12
-43.085
-43.007
-42.884
-42.713
-42.491
-42.215
-41.882
-41.489
-41.034
-40.516
-39.935
-39.289
-38.581
-37.812
-36.987
-36.11
-35.186
-34.222
-33.224
-32.2
-31.156
-30.102
-29.042
-27.984
-26.937
-25.908
-24.907
-23.944
-23.027
-22.169
-21.381
-20.673
-20.055
-19.538
-19.123
-18.816
-18.623
-18.552
-18.618
-18.832
-19.203
-19.738
-20.443
-21.317
-22.356
-23.535
-24.819
-26.169
-27.55
-28.93
-30.291
-31.606
-32.848
-33.987
-34.984
-35.806
-36.437
-36.853
-37.033
-36.972
-36.694
-36.273
-35.827
-35.468
-35.295
-35.37
-35.755
-36.539
-37.792
-39.588
-41.999
-45.037
-48.764
-53.318
-58.695
-64.763
-71.273
-77.679
-83.393
-87.979
-90.84
-91.364
-89.418
-85.166
-79.08
-72.277
-66.029
-61.268
-58.977
-60.186
-63.545
-67.011
-69.969
-69.773
-66.201
-59.457
-42.693
-11.026
38.977
109.401
191.967
279.034
367.665
454.452
538.236
612.1
661.662
675.625
648.467
584.89
496.588
391.118
276.107
158.164
46.244
-41.283
-93.268
-108.181
-93.412
-68.695
-47.778
-35.449
-31.672
-30.03
-27.51
-25.49
-25.602
-30.066
-38.782
-49.572
-60.348
-69.191
-75.164
-78.234
-78.562
-76.629
-73.138
-68.799
-64.384
-60.584
-57.731
-55.911
-55.113
-55.203
-56.046
-57.535
-59.5
-61.77
-64.238
-66.818
-69.438
-72.037
-74.495
-76.672
-78.472
-79.832
-80.718
-81.134
-81.074
-80.545
-79.579
-78.221
-76.517
-74.514
-72.251
-69.763
-67.101
-64.321
-61.486
-58.663
-55.901
-53.235
-50.69
-48.281
-46.015
-43.896
-41.918
-40.065
-38.329
-36.701
-35.174
-33.745
-32.402
-31.133
-29.924
-28.76
-27.628
-26.514
-25.406
-24.29
-23.155
-21.99
-20.784
-19.529
-18.212
-16.821
-15.342
-13.763
-12.069
-10.248
-8.287
-6.173
-3.897
-1.448
1.181
3.996
7.003
10.206
13.607
17.206
21.003
24.995
29.178
33.546
38.09
42.802
47.671
52.685
57.828
63.087
68.443
73.879
79.375
84.911
90.465
96.014
101.535
107.004
112.397
117.689
122.854
127.869
132.707
137.345
141.757
145.922
149.816
153.417
156.706
159.664
162.272
164.515
166.378
167.85
168.918
169.575
169.813
169.627
169.015
167.975
166.509
164.622
162.318
159.606
156.496
153
149.133
144.91
140.35
135.472
130.298
124.848
119.148
113.221
107.094
100.793
94.344
87.776
81.115
74.39
67.627
60.856
54.101
47.39
40.748
34.199
27.767
21.476
15.345
9.396
3.648
-1.884
-7.183
-12.236
-17.032
-21.559
-25.811
-29.781
-33.464
-36.86
-39.966
-42.785
-45.318
-47.57
-49.547
-51.256
-52.705
-53.904
-54.863
-55.593
-56.108
-56.419
-56.541
-56.488
-56.273
-55.912
-55.418
-54.808
-54.096
-53.296
-52.424
-51.494
-50.519
-49.514
-48.491
-47.463
-46.441
-45.435
-44.456
-43.512
-42.612
-41.761
-40.967
-40.235
-39.568
-38.97
-38.443
-37.991
-37.613
-37.311
-37.083
-36.93
-36.849
-36.84
-36.9
-37.025
-37.214
-37.462
-37.766
-38.123
-38.527
-38.974
-39.46
-39.98
-40.529
-41.103
-41.696
-42.304
-42.921
-43.545
-44.171
-44.795
-45.413
-46.023
-46.622
-47.207
-47.776
-48.327
-48.859
-49.369
-49.857
-50.322
-50.763
-51.18
-51.573
-51.941
-52.285
-52.605
-52.903
-53.179
-53.434
-53.669
-53.886
-54.087
-54.273
-54.447
-54.609
-54.763
-54.911
-55.055
-55.197
-55.339
-55.484
-55.633
-55.789
-55.953
-56.126
-56.312
-56.511
-56.724
-56.954
-57.201
-57.468
-57.755
-58.064
-58.394
-58.747
-59.124
-59.523
-59.945
-60.39
-60.856
-61.342
-61.848
-62.371
-62.91
-63.462
-64.023
-64.591
-65.164
-65.737
-66.307
-66.871
-67.424
-67.962
-68.481
-68.978
-69.448
-69.886
-70.287
-70.648
-70.963
-71.229
-71.439
-71.589
-71.674
-71.691
-71.635
-71.505
-71.295
-71.003
-70.629
-70.169
-69.625
-68.997
-68.285
-67.492
-66.622
-65.678
-64.666
-63.592
-62.463
-61.283
-60.062
-58.806
-57.523
-56.22
-54.905
-53.586
-52.273
-50.975
-49.704
-48.467
-47.275
-46.141
-45.077
-44.093
-43.194
-42.387
-41.679
-41.082
-40.608
-40.268
-40.061
-39.988
-40.049
-40.242
-40.563
-40.996
-41.509
-42.071
-42.657
-43.248
-43.835
-44.399
-44.912
-45.339
-45.65
-45.825
-45.871
-45.784
-45.548
-45.165
-44.651
-44.058
-43.484
-43.007
-42.679
-42.538
-42.601
-42.906
-43.519
-44.495
-45.881
-47.678
-49.832
-52.35
-55.298
-58.625
-62.21
-65.749
-68.723
-70.764
-71.636
-70.957
-68.384
-63.808
-57.174
-48.97
-40.275
-31.753
-24.008
-18.107
-14.545
-13.144
-13.974
-14.771
-12.19
-5.506
7.379
26.894
50.778
80.993
118.637
164.939
224.088
296.168
377.918
460.881
531.07
574.214
578.013
539.948
463.431
354.308
226.985
94.483
-26.826
-114.649
-160.185
-163.593
-135.629
-99.681
-69.903
-51.464
-43.147
-35.986
-26.448
-16.023
-6.789
-2.356
-3.335
-7.693
-13.76
-19.644
-23.98
-26.484
-27.104
-26.064
-23.942
-21.281
-18.524
-16.114
-14.425
-13.599
-13.644
-14.451
-15.794
-17.483
-19.371
-21.309
-23.172
-24.865
-26.294
-27.393
-28.143
-28.524
-28.532
-28.177
-27.46
-26.4
-25.031
-23.397
-21.541
-19.505
-17.321
-15.024
-12.655
-10.26
-7.89
-5.585
-3.373
-1.272
0.703
2.545
4.247
5.809
7.246
8.568
9.787
10.912
11.948
12.906
13.799
14.644
15.457
16.254
17.049
17.855
18.69
19.567
20.502
21.507
22.593
23.773
25.06
26.47
28.017
29.713
31.572
33.604
35.823
38.238
40.857
43.687
46.731
49.994
53.478
57.182
61.107
65.249
69.603
74.165
78.926
83.877
89.007
94.304
99.751
105.334
111.035
116.835
122.712
128.647
134.616
140.595
146.562
152.491
158.356
164.133
169.794
175.315
180.668
185.828
190.769
195.467
199.899
204.041
207.873
211.375
214.527
217.313
219.716
221.722
223.319
224.495
225.242
225.551
225.419
224.841
223.817
222.348
220.437
218.09
215.315
212.119
208.516
204.518
200.139
195.396
190.307
184.893
179.174
173.173
166.913
160.42
153.717
146.833
139.791
132.621
125.347
117.996
110.596
103.173
95.751
88.358
81.019
73.757
66.595
59.558
52.665
45.936
39.39
33.044
26.914
21.011
15.35
9.941
4.792
-0.089
-4.696
-9.024
-13.073
-16.84
-20.327
-23.535
-26.469
-29.133
-31.533
-33.676
-35.571
-37.227
-38.652
-39.858
-40.856
-41.658
-42.276
-42.724
-43.016
-43.165
-43.184
-43.089
-42.892
-42.608
-42.248
-41.827
-41.356
-40.847
-40.311
-39.758
-39.199
-38.642
-38.097
-37.57
-37.069
-36.6
-36.168
-35.778
-35.434
-35.138
-34.895
-34.705
-34.57
-34.492
-34.472
-34.508
-34.6
-34.746
-34.946
-35.195
-35.491
-35.83
-36.208
-36.621
-37.065
-37.535
-38.025
-38.533
-39.053
-39.58
-40.111
-40.64
-41.164
-41.678
-42.18
-42.665
-43.131
-43.574
-43.992
-44.383
-44.743
-45.072
-45.366
-45.624
-45.844
-46.025
-46.165
-46.264
-46.32
-46.333
-46.304
-46.233
-46.122
-45.971
-45.782
-45.558
-45.301
-45.014
-44.699
-44.358
-43.997
-43.616
-43.22
-42.811
-42.394
-41.97
-41.544
-41.118
-40.695
-40.278
-39.871
-39.476
-39.096
-38.735
-38.396
-38.082
-37.797
-37.544
-37.326
-37.147
-37.01
-36.918
-36.874
-36.879
-36.936
-37.047
-37.211
-37.431
-37.707
-38.038
-38.424
-38.864
-39.357
-39.902
-40.497
-41.14
-41.829
-42.561
-43.333
-44.141
-44.984
-45.855
-46.751
-47.668
-48.599
-49.54
-50.486
-51.429
-52.364
-53.284
-54.18
-55.046
-55.874
-56.656
-57.384
-58.05
-58.648
-59.169
-59.609
-59.961
-60.218
-60.375
-60.428
-60.374
-60.208
-59.928
-59.531
-59.017
-58.385
-57.636
-56.772
-55.795
-54.708
-53.518
-52.231
-50.855
-49.396
-47.865
-46.272
-44.626
-42.94
-41.224
-39.489
-37.748
-36.012
-34.296
-32.614
-30.983
-29.414
-27.924
-26.523
-25.225
-24.041
-22.977
-22.039
-21.234
-20.57
-20.063
-19.725
-19.563
-19.581
-19.782
-20.164
-20.717
-21.426
-22.261
-23.195
-24.201
-25.259
-26.358
-27.481
-28.603
-29.693
-30.712
-31.624
-32.406
-33.037
-33.488
-33.751
-33.845
-33.813
-33.735
-33.673
-33.657
-33.719
-33.898
-34.25
-34.845
-35.753
-37.01
-38.673
-40.848
-43.569
-46.792
-50.331
-53.779
-56.712
-58.795
-59.661
-58.893
-56.307
-51.986
-46.38
-40.513
-35.39
-31.681
-30.083
-31.246
-35.283
-41.664
-48.973
-54.698
-56.326
-51.655
-38.201
-13.59
24.102
74.503
134.213
199.129
265.009
331.408
401.316
472.588
539.187
589.593
607.377
585.628
525.248
432.003
319.82
200.731
86.055
-9.044
-74.669
-107.199
-110.069
-96.434
-78.988
-64.634
-55.179
-47.054
-37.662
-27.546
-18.812
-14.746
-16.657
-23.795
-34.429
-45.776
-55.802
-63.725
-69.082
-71.843
-72.236
-70.266
-66.45
-61.937
-57.621
-54.025
-51.43
-49.775
-49
-49.279
-50.547
-52.469
-54.781
-57.241
-59.704
-62.185
-64.62
-66.841
-68.751
-70.305
-71.483
-72.318
-72.815
-72.942
-72.705
-72.127
-71.241
-70.091
-68.713
-67.13
-65.382
-63.513
-61.576
-59.631
-57.722
-55.877
-54.122
-52.465
-50.914
-49.471
-48.128
-46.873
-45.692
-44.572
-43.504
-42.481
-41.491
-40.519
-39.551
-38.571
-37.564
-36.516
-35.413
-34.243
-32.994
-31.656
-30.219
-28.675
-27.016
-25.231
-23.311
-21.246
-19.026
-16.642
-14.088
-11.356
-8.439
-5.336
-2.042
1.441
5.114
8.975
13.021
17.247
21.646
26.212
30.935
35.806
40.812
45.941
51.177
56.505
61.909
67.37
72.869
78.388
83.904
89.397
94.844
100.224
105.513
110.689
115.728
120.607
125.303
129.795
134.061
138.081
141.833
145.299
148.462
151.304
153.812
155.969
157.765
159.188
160.229
160.88
161.136
160.991
160.445
159.496
158.147
156.399
154.259
151.732
148.829
145.558
141.932
137.965
133.672
129.071
124.179
119.017
113.605
107.964
102.117
96.086
89.896
83.569
77.13
70.602
64.012
57.381
50.735
44.097
37.491
30.938
24.46
18.079
11.813
5.682
-0.296
-6.105
-11.729
-17.155
-22.368
-27.358
-32.115
-36.629
-40.895
-44.907
-48.661
-52.155
-55.387
-58.36
-61.074
-63.532
-65.739
-67.698
-69.417
-70.903
-72.162
-73.205
-74.04
-74.677
-75.127
-75.402
-75.511
-75.468
-75.283
-74.969
-74.537
-74
-73.369
-72.657
-71.876
-71.037
-70.152
-69.232
-68.288
-67.331
-66.369
-65.412
-64.467
-63.544
-62.647
-61.785
-60.962
-60.185
-59.457
-58.782
-58.164
-57.606
-57.109
-56.677
-56.308
-56.006
-55.768
-55.596
-55.489
-55.445
-55.464
-55.543
-55.682
-55.876
-56.124
-56.421
-56.764
-57.149
-57.572
-58.027
-58.51
-59.016
-59.541
-60.079
-60.625
-61.176
-61.725
-62.269
-62.803
-63.324
-63.826
-64.306
-64.761
-65.188
-65.582
-65.941
-66.263
-66.544
-66.783
-66.978
-67.126
-67.225
-67.275
-67.274
-67.221
-67.116
-66.959
-66.749
-66.489
-66.179
-65.821
-65.417
-64.969
-64.48
-63.954
-63.393
-62.802
-62.182
-61.539
-60.876
-60.198
-59.507
-58.807
-58.103
-57.399
-56.697
-56.002
-55.317
-54.646
-53.992
-53.358
-52.748
-52.166
-51.614
-51.096
-50.614
-50.173
-49.774
-49.419
-49.111
-48.852
-48.642
-48.484
-48.376
-48.321
-48.317
-48.363
-48.46
-48.607
-48.8
-49.04
-49.324
-49.65
-50.015
-50.418
-50.856
-51.326
-51.826
-52.352
-52.903
-53.475
-54.064
-54.668
-55.282
-55.904
-56.528
-57.151
-57.768
-58.374
-58.964
-59.534
-60.078
-60.593
-61.073
-61.514
-61.91
-62.257
-62.55
-62.786
-62.96
-63.068
-63.107
-63.072
-62.962
-62.773
-62.502
-62.146
-61.704
-61.173
-60.553
-59.84
-59.035
-58.138
-57.147
-56.064
-54.891
-53.63
-52.285
-50.859
-49.359
-47.791
-46.162
-44.479
-42.75
-40.984
-39.189
-37.373
-35.545
-33.714
-31.889
-30.08
-28.297
-26.551
-24.854
-23.215
-21.645
-20.154
-18.751
-17.439
-16.225
-15.115
-14.116
-13.243
-12.506
-11.909
-11.458
-11.155
-10.997
-10.977
-11.079
-11.271
-11.524
-11.813
-12.118
-12.427
-12.725
-12.987
-13.188
-13.293
-13.274
-13.12
-12.818
-12.351
-11.717
-10.938
-10.075
-9.222
-8.472
-7.884
-7.494
-7.338
-7.47
-7.954
-8.864
-10.255
-12.126
-14.496
-17.451
-21.005
-25.069
-29.415
-33.561
-36.998
-39.429
-40.514
-39.814
-37.142
-32.518
-26.292
-19.5
-13.215
-7.972
-4.339
-3.184
-4.66
-8.22
-13.049
-15.827
-12.851
-3.195
15.353
42.879
76.555
117.656
166.075
222.378
291.528
374.278
467.406
561.279
638.825
682.724
679.68
628.168
534.345
407.724
265.275
120.086
-12.765
-111.829
-167.982
-176.444
-141.405
-85.006
-25.858
18.701
36.268
31.176
11.943
-10.04
-24.352
-29.748
-29.263
-28.102
-30.045
-34.868
-40.7
-44.839
-46.047
-44.69
-41.364
-37.261
-33.282
-29.782
-27.09
-25.305
-24.322
-24.136
-24.78
-26.075
-27.841
-29.926
-32.14
-34.408
-36.699
-38.903
-40.883
-42.558
-43.862
-44.765
-45.288
-45.42
-45.147
-44.492
-43.481
-42.154
-40.553
-38.711
-36.655
-34.427
-32.078
-29.664
-27.251
-24.887
-22.605
-20.434
-18.385
-16.47
-14.692
-13.045
-11.517
-10.098
-8.776
-7.547
-6.407
-5.345
-4.35
-3.406
-2.5
-1.615
-0.739
0.142
1.043
1.977
2.953
3.984
5.077
6.244
7.497
8.848
10.31
11.896
13.62
15.492
17.526
19.73
22.115
24.688
27.454
30.418
33.582
36.949
40.519
44.29
48.259
52.424
56.776
61.31
66.015
70.881
75.894
81.04
86.303
91.665
97.109
102.613
108.158
113.721
119.282
124.816
130.3
135.71
141.023
146.213
151.255
156.126
160.801
165.257
169.471
173.422
177.088
180.452
183.493
186.196
188.545
190.526
192.127
193.337
194.146
194.548
194.539
194.114
193.273
192.017
190.351
188.278
185.806
182.945
179.706
176.1
172.142
167.848
163.236
158.322
153.129
147.676
141.985
136.08
129.983
123.719
117.312
110.788
104.17
97.484
90.754
84.005
77.261
70.545
63.881
57.29
50.795
44.415
38.169
32.076
26.152
20.413
14.872
9.541
4.433
-0.445
-5.084
-9.477
-13.62
-17.507
-21.138
-24.51
-27.623
-30.478
-33.077
-35.425
-37.523
-39.379
-40.998
-42.386
-43.551
-44.502
-45.248
-45.796
-46.159
-46.344
-46.364
-46.228
-45.948
-45.534
-44.997
-44.348
-43.598
-42.758
-41.837
-40.846
-39.793
-38.688
-37.54
-36.358
-35.148
-33.92
-32.681
-31.438
-30.198
-28.969
-27.756
-26.567
-25.407
-24.281
-23.195
-22.155
-21.163
-20.225
-19.345
-18.525
-17.77
-17.082
-16.464
-15.917
-15.444
-15.046
-14.723
-14.476
-14.306
-14.211
-14.193
-14.25
-14.382
-14.588
-14.865
-15.214
-15.631
-16.115
-16.662
-17.269
-17.932
-18.646
-19.409
-20.213
-21.055
-21.928
-22.828
-23.748
-24.684
-25.627
-26.573
-27.516
-28.449
-29.365
-30.261
-31.129
-31.966
-32.765
-33.523
-34.235
-34.899
-35.51
-36.067
-36.565
-37.004
-37.381
-37.695
-37.946
-38.134
-38.259
-38.322
-38.326
-38.274
-38.168
-38.012
-37.811
-37.569
-37.291
-36.983
-36.65
-36.299
-35.936
-35.568
-35.2
-34.841
-34.495
-34.17
-33.872
-33.604
-33.374
-33.184
-33.039
-32.943
-32.898
-32.907
-32.973
-33.095
-33.276
-33.514
-33.809
-34.16
-34.564
-35.016
-35.513
-36.049
-36.62
-37.219
-37.84
-38.474
-39.115
-39.754
-40.384
-40.995
-41.579
-42.126
-42.627
-43.074
-43.459
-43.773
-44.009
-44.16
-44.22
-44.185
-44.05
-43.81
-43.463
-43.007
-42.44
-41.762
-40.975
-40.079
-39.079
-37.98
-36.791
-35.52
-34.176
-32.771
-31.315
-29.822
-28.305
-26.774
-25.241
-23.716
-22.212
-20.742
-19.323
-17.968
-16.689
-15.5
-14.413
-13.442
-12.597
-11.886
-11.311
-10.877
-10.591
-10.467
-10.52
-10.763
-11.199
-11.83
-12.654
-13.666
-14.855
-16.198
-17.657
-19.198
-20.788
-22.405
-24.033
-25.643
-27.202
-28.662
-29.982
-31.13
-32.083
-32.826
-33.356
-33.684
-33.842
-33.889
-33.898
-33.941
-34.092
-34.42
-34.994
-35.882
-37.144
-38.867
-41.161
-44.066
-47.541
-51.434
-55.461
-59.334
-62.826
-65.642
-67.371
-67.701
-66.579
-64.285
-61.471
-58.814
-56.654
-55.243
-55.084
-56.562
-59.539
-63.246
-66.013
-65.885
-61.584
-51.858
-34.845
-8.71
28.115
74.9
127.879
183.443
238.381
293.456
353.194
416.194
478.014
528.053
547.475
527.735
465.821
363.816
239.902
109.532
-11.481
-102.564
-158.175
-178.891
-171.524
-154.381
-138.041
-126.696
-120.814
-113.924
-104.018
-92.837
-81.983
-74.637
-71.323
-70.476
-71.216
-71.985
-71.273
-68.854
-64.896
-59.979
-55.373
-51.678
-48.653
-46.403
-45.214
-45.06
-45.897
-47.34
-48.517
-49.145
-49.58
-49.988
-50.461
-51.045
-51.547
-51.944
-52.488
-53.18
-53.794
-54.183
-54.186
-53.741
-52.963
-51.915
-50.585
-49.01
-47.244
-45.332
-43.355
-41.366
-39.383
-37.441
-35.563
-33.766
-32.076
-30.507
-29.059
-27.733
-26.512
-25.373
-24.297
-23.27
-22.28
-21.319
-20.372
-19.423
-18.455
-17.457
-16.417
-15.324
-14.163
-12.919
-11.579
-10.135
-8.578
-6.905
-5.106
-3.174
-1.1
1.123
3.502
6.042
8.749
11.626
14.678
17.905
21.307
24.881
28.625
32.535
36.606
40.833
45.208
49.722
54.367
59.133
64.008
68.98
74.037
79.163
84.347
89.571
94.82
100.078
105.326
110.547
115.723
120.834
125.862
130.785
135.586
140.245
144.743
149.06
153.18
157.083
160.753
164.173
167.329
170.205
172.789
175.068
177.031
178.669
179.972
180.934
181.549
181.811
181.717
181.266
180.456
179.286
177.759
175.878
173.646
171.07
168.157
164.916
161.356
157.49
153.329
148.889
144.183
139.229
134.043
128.642
123.046
117.273
111.343
105.276
99.092
92.811
86.454
80.04
73.589
67.121
60.654
54.207
47.798
41.443
35.16
28.964
22.872
16.898
11.056
5.359
-0.179
-5.549
-10.739
-15.742
-20.548
-25.152
-29.547
-33.73
-37.696
-41.444
-44.972
-48.28
-51.369
-54.24
-56.896
-59.341
-61.578
-63.613
-65.451
-67.096
-68.556
-69.837
-70.945
-71.887
-72.67
-73.301
-73.789
-74.141
-74.365
-74.47
-74.464
-74.356
-74.155
-73.87
-73.509
-73.081
-72.594
-72.057
-71.477
-70.862
-70.221
-69.559
-68.884
-68.202
-67.52
-66.844
-66.179
-65.529
-64.901
-64.296
-63.721
-63.179
-62.673
-62.206
-61.783
-61.406
-61.077
-60.8
-60.576
-60.407
-60.295
-60.24
-60.242
-60.301
-60.418
-60.592
-60.821
-61.104
-61.44
-61.827
-62.264
-62.747
-63.275
-63.846
-64.455
-65.102
-65.784
-66.497
-67.24
-68.01
-68.805
-69.624
-70.464
-71.324
-72.201
-73.093
-73.999
-74.916
-75.843
-76.778
-77.72
-78.666
-79.616
-80.569
-81.523
-82.479
-83.436
-84.392
-85.348
-86.304
-87.259
-88.212
-89.165
-90.117
-91.068
-92.018
-92.967
-93.916
-94.863
-95.807
-96.748
-97.683
-98.61
-99.527
-100.433
-101.324
-102.197
-103.05
-103.879
-104.682
-105.455
-106.193
-106.895
-107.555
-108.169
-108.734
-109.247
-109.702
-110.097
-110.427
-110.691
-110.885
-111.006
-111.052
-111.02
-110.908
-110.715
-110.439
-110.08
-109.637
-109.113
-108.512
-107.837
-107.095
-106.291
-105.431
-104.524
-103.576
-102.595
-101.585
-100.553
-99.505
-98.449
-97.396
-96.355
-95.334
-94.341
-93.383
-92.47
-91.61
-90.806
-90.058
-89.369
-88.742
-88.188
-87.726
-87.368
-87.12
-86.988
-86.969
-87.063
-87.264
-87.557
-87.91
-88.295
-88.684
-89.058
-89.408
-89.711
-89.937
-90.047
-89.988
-89.727
-89.247
-88.527
-87.562
-86.364
-84.956
-83.389
-81.737
-80.066
-78.446
-76.956
-75.669
-74.672
-74.04
-73.872
-74.313
-75.425
-77.184
-79.452
-81.915
-84.241
-86.18
-87.409
-87.531
-86.326
-83.745
-80.112
-76.245
-72.925
-70.715
-70.088
-71.397
-74.798
-80.117
-86.351
-91.567
-93.663
-90.727
-80.919
-62.473
-33.644
7.195
59.13
118.394
181.393
244.478
307.88
376.201
448.67
519.751
577.566
603.426
587.495
529.404
435.887
322.836
203.691
89.304
-8.236
-81.61
-127.123
-146.312
-148.674
-143.012
-134.112
-123.436
-108.126
-87.474
-64.547
-42.822
-26.068
-16.402
-13.825
-17.404
-25.544
-36.031
-46.481
-55.376
-62.002
-65.979
-67.101
-65.468
-61.445
-55.924
-50.242
-45.218
-41.164
-38.247
-36.503
-35.923
-36.482
-37.919
-39.727
-41.579
-43.3
-44.75
-45.91
-46.741
-47.167
-47.196
-46.882
-46.256
-45.352
-44.204
-42.811
-41.194
-39.391
-37.427
-35.349
-33.207
-31.047
-28.924
-26.876
-24.929
-23.103
-21.412
-19.864
-18.46
-17.193
-16.042
-14.995
-14.039
-13.162
-12.351
-11.587
-10.847
-10.111
-9.359
-8.573
-7.736
-6.831
-5.841
-4.749
-3.544
-2.213
-0.746
0.867
2.639
4.582
6.705
9.017
11.526
14.239
17.162
20.298
23.651
27.221
31.004
34.998
39.198
43.598
48.19
52.963
57.905
63.005
68.249
73.619
79.1
84.673
90.319
96.018
101.748
107.489
113.218
118.911
124.547
130.101
135.552
140.874
146.047
151.045
155.848
160.433
164.778
168.864
172.671
176.181
179.375
182.24
184.761
186.925
188.721
190.14
191.173
191.816
192.063
191.911
191.361
190.411
189.066
187.329
185.207
182.708
179.84
176.615
173.045
169.145
164.928
160.412
155.615
150.555
145.253
139.729
134.007
128.109
122.058
115.878
109.595
103.232
96.814
90.366
83.912
77.476
71.082
64.753
58.512
52.38
46.377
40.524
34.839
29.339
24.041
18.958
14.105
9.492
5.13
1.027
-2.808
-6.37
-9.654
-12.659
-15.382
-17.825
-19.988
-21.875
-23.492
-24.845
-25.94
-26.787
-27.396
-27.776
-27.941
-27.901
-27.67
-27.262
-26.691
-25.972
-25.118
-24.147
-23.071
-21.906
-20.667
-19.368
-18.022
-16.642
-15.242
-13.834
-12.429
-11.039
-9.672
-8.341
-7.052
-5.814
-4.635
-3.521
-2.478
-1.509
-0.619
0.189
0.914
1.552
2.105
2.571
2.95
3.245
3.455
3.585
3.635
3.609
3.511
3.343
3.11
2.816
2.464
2.058
1.602
1.1
0.555
-0.029
-0.648
-1.3
-1.981
-2.687
-3.417
-4.166
-4.933
-5.715
-6.509
-7.314
-8.128
-8.949
-9.775
-10.605
-11.437
-12.27
-13.103
-13.933
-14.762
-15.587
-16.407
-17.223
-18.034
-18.839
-19.638
-20.43
-21.216
-21.995
-22.766
-23.529
-24.283
-25.029
-25.765
-26.492
-27.209
-27.915
-28.61
-29.294
-29.966
-30.625
-31.272
-31.906
-32.527
-33.135
-33.729
-34.31
-34.879
-35.434
-35.978
-36.509
-37.029
-37.537
-38.032
-38.516
-38.987
-39.444
-39.887
-40.315
-40.726
-41.119
-41.493
-41.846
-42.176
-42.481
-42.76
-43.009
-43.227
-43.412
-43.562
-43.673
-43.745
-43.774
-43.758
-43.696
-43.585
-43.422
-43.206
-42.934
-42.605
-42.217
-41.767
-41.257
-40.684
-40.049
-39.353
-38.598
-37.786
-36.923
-36.012
-35.06
-34.073
-33.059
-32.026
-30.981
-29.933
-28.89
-27.86
-26.853
-25.878
-24.946
-24.068
-23.255
-22.518
-21.87
-21.319
-20.878
-20.553
-20.352
-20.28
-20.343
-20.549
-20.914
-21.446
-22.152
-23.035
-24.093
-25.322
-26.71
-28.238
-29.872
-31.584
-33.342
-35.124
-36.913
-38.69
-40.432
-42.109
-43.679
-45.11
-46.377
-47.463
-48.36
-49.062
-49.584
-49.976
-50.32
-50.696
-51.175
-51.792
-52.577
-53.582
-54.859
-56.478
-58.505
-60.958
-63.853
-67.236
-71.102
-75.361
-79.826
-84.125
-87.829
-90.668
-92.408
-92.716
-91.352
-88.282
-83.714
-78.239
-72.625
-67.153
-61.753
-56.958
-53.416
-50.986
-49.272
-46.166
-37.782
-23.2
-3.148
20.997
45.279
70.517
101.054
140.992
196.532
267.848
350.483
437.94
517.52
579.174
613.954
612.371
574.291
500.912
394.906
269.08
135.352
9.757
-85.779
-142.212
-158.87
-145.002
-121.837
-102.494
-92.136
-89.865
-87.481
-81.957
-74.828
-68.282
-66.073
-68.939
-74.991
-82.666
-90.07
-95.711
-99.222
-100.471
-99.625
-97.322
-94.181
-90.708
-87.455
-84.899
-83.266
-82.642
-82.972
-84.054
-85.705
-87.771
-90.092
-92.524
-94.951
-97.269
-99.372
-101.166
-102.577
-103.552
-104.066
-104.11
-103.688
-102.808
-101.508
-99.834
-97.834
-95.558
-93.046
-90.33
-87.459
-84.487
-81.474
-78.482
-75.558
-72.733
-70.033
-67.473
-65.063
-62.806
-60.694
-58.709
-56.838
-55.072
-53.402
-51.821
-50.318
-48.876
-47.479
-46.111
-44.754
-43.395
-42.018
-40.605
-39.144
-37.621
-36.026
-34.348
-32.576
-30.698
-28.701
-26.572
-24.299
-21.873
-19.281
-16.515
-13.565
-10.427
-7.095
-3.567
0.158
4.081
8.199
12.508
17.003
21.678
26.523
31.529
36.684
41.974
47.386
52.902
58.505
64.178
69.899
75.648
81.403
87.143
92.846
98.488
104.046
109.498
114.82
119.99
124.984
129.782
134.36
138.698
142.776
146.575
150.076
153.265
156.125
158.645
160.811
162.614
164.046
165.099
165.769
166.052
165.947
165.455
164.577
163.318
161.684
159.682
157.323
154.618
151.579
148.22
144.558
140.608
136.389
131.92
127.22
122.31
117.212
111.948
106.541
101.013
95.388
89.689
83.939
78.16
72.376
66.608
60.877
55.205
49.61
44.113
38.731
33.481
28.379
23.439
18.675
14.099
9.72
5.547
1.588
-2.152
-5.67
-8.961
-12.025
-14.862
-17.473
-19.861
-22.03
-23.985
-25.731
-27.277
-28.631
-29.8
-30.796
-31.629
-32.309
-32.847
-33.256
-33.547
-33.732
-33.825
-33.837
-33.78
-33.668
-33.511
-33.322
-33.112
-32.892
-32.672
-32.46
-32.266
-32.098
-31.961
-31.864
-31.81
-31.805
-31.851
-31.952
-32.11
-32.327
-32.601
-32.934
-33.324
-33.77
-34.27
-34.822
-35.422
-36.067
-36.754
-37.478
-38.236
-39.023
-39.833
-40.663
-41.507
-42.359
-43.215
-44.07
-44.919
-45.756
-46.578
-47.381
-48.16
-48.912
-49.635
-50.326
-50.983
-51.604
-52.188
-52.735
-53.244
-53.716
-54.151
-54.551
-54.916
-55.248
-55.55
-55.822
-56.067
-56.288
-56.488
-56.667
-56.831
-56.981
-57.121
-57.255
-57.384
-57.513
-57.645
-57.784
-57.933
-58.094
-58.272
-58.468
-58.687
-58.93
-59.199
-59.498
-59.828
-60.191
-60.587
-61.017
-61.484
-61.986
-62.525
-63.1
-63.71
-64.355
-65.036
-65.749
-66.495
-67.272
-68.078
-68.91
-69.767
-70.645
-71.542
-72.453
-73.375
-74.303
-75.233
-76.159
-77.076
-77.978
-78.86
-79.715
-80.536
-81.318
-82.052
-82.733
-83.352
-83.902
-84.376
-84.767
-85.067
-85.268
-85.363
-85.346
-85.209
-84.945
-84.548
-84.011
-83.328
-82.496
-81.509
-80.364
-79.057
-77.587
-75.954
-74.158
-72.2
-70.083
-67.812
-65.393
-62.832
-60.138
-57.318
-54.383
-51.343
-48.209
-44.993
-41.707
-38.363
-34.977
-31.563
-28.137
-24.718
-21.322
-17.967
-14.671
-11.449
-8.318
-5.29
-2.38
0.4
3.033
5.502
7.787
9.877
11.761
13.435
14.897
16.149
17.206
18.089
18.82
19.42
19.903
20.277
20.553
20.746
20.88
20.988
21.101
21.241
21.426
21.668
21.974
22.336
22.71
23.026
23.219
23.234
23.056
22.669
22.04
21.127
19.875
18.236
16.193
13.71
10.715
7.2
3.244
-0.948
-4.998
-8.528
-11.271
-12.949
-13.216
-11.838
-8.811
-4.441
0.589
5.586
10.204
14.165
16.925
18.071
17.704
16.511
16.054
18.14
23.88
34.585
52.442
79.611
117.942
166.547
220.964
277.111
331.693
386.893
449.621
520.307
595.354
660.168
689.131
667.477
587.095
454.019
296.567
139.768
8.216
-77
-116.402
-113.965
-77.591
-26.229
28.962
76.511
102.51
106.91
92.645
66.849
44.491
31.567
28.669
33.735
39.13
41.76
42.336
41.761
42.496
45.239
48.929
52.871
56.359
58.926
60.637
61.545
61.676
61.2
60.255
58.923
57.286
55.421
53.409
51.339
49.313
47.426
45.746
44.329
43.218
42.431
41.964
41.81
41.944
42.322
42.911
43.674
44.579
45.602
46.703
47.838
48.958
50.007
50.943
51.74
52.376
52.837
53.12
53.224
53.161
52.95
52.605
52.14
51.566
50.892
50.131
49.302
48.422
47.509
46.582
45.656
44.749
43.878
43.059
42.307
41.634
41.051
40.572
40.211
39.981
39.896
39.97
40.214
40.64
41.26
42.083
43.118
44.369
45.843
47.541
49.465
51.616
53.991
56.587
59.398
62.418
65.639
69.052
72.646
76.409
80.327
84.385
88.567
92.856
97.233
101.679
106.175
110.699
115.23
119.748
124.23
128.654
132.999
137.241
141.359
145.331
149.135
152.749
156.152
159.326
162.251
164.91
167.286
169.365
171.132
172.575
173.684
174.448
174.859
174.911
174.599
173.919
172.868
171.448
169.659
167.504
164.988
162.117
158.899
155.341
151.455
147.252
142.743
137.943
132.867
127.529
121.948
116.141
110.127
103.925
97.556
91.039
84.396
77.648
70.816
63.92
56.982
50.021
43.059
36.114
29.206
22.354
15.576
8.889
2.309
-4.148
-10.468
-16.638
-22.646
-28.48
-34.13
-39.588
-44.846
-49.896
-54.733
-59.352
-63.749
-67.921
-71.867
-75.587
-79.08
-82.35
-85.398
-88.229
-90.846
-93.255
-95.461
-97.471
-99.291
-100.93
-102.394
-103.693
-104.835
-105.828
-106.682
-107.406
-108.009
-108.499
-108.886
-109.179
-109.385
-109.512
-109.568
-109.561
-109.497
-109.385
-109.23
-109.039
-108.818
-108.573
-108.31
-108.032
-107.746
-107.455
-107.162
-106.871
-106.586
-106.309
-106.042
-105.788
-105.548
-105.324
-105.117
-104.929
-104.76
-104.611
-104.481
-104.372
-104.283
-104.213
-104.164
-104.135
-104.126
-104.138
-104.172
-104.227
-104.305
-104.405
-104.529
-104.677
-104.848
-105.043
-105.263
-105.506
-105.774
-106.066
-106.382
-106.721
-107.084
-107.469
-107.875
-108.301
-108.747
-109.208
-109.685
-110.175
-110.674
-111.182
-111.695
-112.211
-112.726
-113.239
-113.744
-114.24
-114.721
-115.182
-115.619
-116.028
-116.402
-116.736
-117.024
-117.261
-117.442
-117.561
-117.614
-117.595
-117.499
-117.322
-117.059
-116.708
-116.265
-115.727
-115.094
-114.364
-113.538
-112.617
-111.603
-110.5
-109.312
-108.043
-106.7
-105.29
-103.819
-102.296
-100.728
-99.125
-97.496
-95.849
-94.196
-92.547
-90.912
-89.305
-87.737
-86.221
-84.771
-83.396
-82.111
-80.925
-79.845
-78.878
-78.03
-77.31
-76.731
-76.303
-76.03
-75.914
-75.956
-76.155
-76.503
-76.984
-77.569
-78.23
-78.942
-79.685
-80.449
-81.221
-81.977
-82.687
-83.315
-83.831
-84.224
-84.479
-84.578
-84.506
-84.266
-83.906
-83.507
-83.143
-82.859
-82.666
-82.572
-82.619
-82.877
-83.417
-84.303
-85.551
-87.178
-89.279
-91.888
-94.932
-98.189
-101.189
-103.425
-104.55
-104.228
-102.055
-97.875
-91.793
-84.253
-76.339
-69.153
-63.437
-59.996
-59.559
-62.202
-67.341
-73.589
-78.431
-79.303
-73.883
-59.396
-33.242
6.472
58.958
120.475
187.008
253.975
321.267
392.758
465.574
534.597
588.857
608.447
585.162
516.822
405.475
270.511
129.206
-0.619
-95.622
-148.951
-162.332
-145.649
-120.593
-99.862
-87.844
-83.393
-78.5
-70.421
-61.005
-52.647
-48.992
-50.599
-55.461
-61.945
-68.158
-72.627
-74.97
-75.021
-72.928
-69.334
-64.887
-60.121
-55.609
-51.846
-49.069
-47.377
-46.733
-46.945
-47.84
-49.269
-51.068
-53.084
-55.197
-57.302
-59.292
-61.071
-62.56
-63.698
-64.452
-64.812
-64.775
-64.343
-63.545
-62.417
-61.001
-59.341
-57.471
-55.423
-53.241
-50.974
-48.678
-46.415
-44.225
-42.137
-40.172
-38.34
-36.646
-35.092
-33.663
-32.34
-31.109
-29.955
-28.869
-27.842
-26.859
-25.902
-24.953
-23.993
-23.007
-21.977
-20.89
-19.728
-18.48
-17.134
-15.681
-14.111
-12.416
-10.583
-8.602
-6.464
-4.157
-1.673
0.995
3.855
6.913
10.171
13.63
17.292
21.153
25.212
29.464
33.903
38.521
43.309
48.256
53.351
58.579
63.926
69.375
74.908
80.508
86.153
91.824
97.5
103.158
108.778
114.336
119.811
125.178
130.417
135.503
140.414
145.13
149.627
153.886
157.887
161.611
165.042
168.162
170.957
173.415
175.522
177.27
178.649
179.652
180.275
180.513
180.366
179.832
178.914
177.616
175.944
173.903
171.503
168.753
165.667
162.256
158.535
154.519
150.226
145.673
140.879
135.865
130.65
125.255
119.703
114.015
108.213
102.32
96.357
90.346
84.311
78.27
72.247
66.261
60.331
54.478
48.718
43.069
37.548
32.17
26.948
21.896
17.025
12.346
7.868
3.599
-0.454
-4.285
-7.89
-11.266
-14.412
-17.325
-20.008
-22.461
-24.688
-26.691
-28.475
-30.046
-31.41
-32.572
-33.542
-34.326
-34.933
-35.373
-35.653
-35.785
-35.777
-35.639
-35.382
-35.016
-34.551
-33.997
-33.364
-32.663
-31.902
-31.092
-30.242
-29.36
-28.456
-27.538
-26.613
-25.689
-24.772
-23.87
-22.988
-22.132
-21.305
-20.514
-19.761
-19.05
-18.384
-17.765
-17.195
-16.676
-16.21
-15.796
-15.436
-15.129
-14.876
-14.676
-14.529
-14.433
-14.387
-14.39
-14.44
-14.534
-14.671
-14.848
-15.061
-15.31
-15.59
-15.898
-16.232
-16.589
-16.966
-17.361
-17.771
-18.192
-18.624
-19.063
-19.508
-19.957
-20.408
-20.859
-21.309
-21.757
-22.203
-22.644
-23.081
-23.511
-23.935
-24.352
-24.761
-25.16
-25.55
-25.931
-26.302
-26.664
-27.018
-27.363
-27.702
-28.035
-28.363
-28.687
-29.009
-29.329
-29.648
-29.968
-30.288
-30.609
-30.933
-31.26
-31.591
-31.927
-32.267
-32.613
-32.964
-33.32
-33.682
-34.049
-34.423
-34.802
-35.188
-35.581
-35.982
-36.392
-36.811
-37.24
-37.677
-38.122
-38.573
-39.029
-39.487
-39.943
-40.394
-40.838
-41.271
-41.691
-42.095
-42.482
-42.85
-43.198
-43.525
-43.829
-44.106
-44.352
-44.563
-44.733
-44.855
-44.923
-44.933
-44.879
-44.756
-44.564
-44.299
-43.961
-43.544
-43.042
-42.444
-41.744
-40.941
-40.039
-39.047
-37.982
-36.866
-35.724
-34.583
-33.465
-32.382
-31.336
-30.317
-29.312
-28.309
-27.304
-26.308
-25.328
-24.368
-23.429
-22.504
-21.572
-20.603
-19.554
-18.374
-17.026
-15.498
-13.807
-12.004
-10.152
-8.326
-6.584
-4.963
-3.493
-2.198
-1.091
-0.174
0.532
0.994
1.158
0.941
0.289
-0.827
-2.392
-4.34
-6.588
-9.034
-11.593
-14.195
-16.789
-19.348
-21.894
-24.484
-27.168
-29.976
-32.882
-35.825
-38.783
-41.755
-44.782
-47.941
-51.295
-54.937
-59.017
-63.607
-68.674
-74.04
-79.265
-83.821
-87.288
-89.224
-89.191
-87.04
-82.879
-77.191
-71.076
-65.724
-62.047
-60.92
-63.034
-68.421
-76.449
-85.678
-93.475
-96.87
-93.196
-79.795
-54.322
-15.467
36.901
101.547
175.151
253.189
330.938
402.953
463.367
506.992
529.518
529.001
507.124
466.798
410.481
338.246
249.41
147.439
41.536
-52.072
-117.787
-149.219
-149.776
-132.697
-112.383
-96.727
-87.66
-82.123
-77.095
-72.397
-69.427
-70.245
-75.072
-82.44
-90.475
-97.02
-101.045
-102.456
-101.284
-98
-93.272
-87.714
-82.075
-77.083
-73.07
-70.147
-68.332
-67.479
-67.467
-68.19
-69.471
-71.141
-73.076
-75.189
-77.404
-79.648
-81.808
-83.756
-85.402
-86.689
-87.595
-88.116
-88.251
-88.01
-87.421
-86.525
-85.369
-83.99
-82.426
-80.709
-78.886
-77.007
-75.131
-73.31
-71.585
-69.982
-68.514
-67.187
-66.002
-64.95
-64.019
-63.191
-62.447
-61.777
-61.169
-60.611
-60.087
-59.581
-59.074
-58.544
-57.974
-57.346
-56.641
-55.845
-54.944
-53.927
-52.783
-51.505
-50.083
-48.508
-46.77
-44.857
-42.757
-40.457
-37.946
-35.213
-32.249
-29.047
-25.603
-21.917
-17.99
-13.828
-9.434
-4.815
0.028
5.094
10.376
15.867
21.552
27.408
33.408
39.516
45.693
51.899
58.1
64.266
70.377
76.423
82.399
88.304
94.124
99.834
105.412
110.837
116.098
121.192
126.128
130.923
135.598
140.182
144.695
149.149
153.532
157.803
161.903
165.759
169.322
172.567
175.464
177.978
180.057
181.646
182.687
183.129
182.918
181.983
180.263
177.707
174.3
170.075
165.095
159.445
153.178
146.323
138.929
131.069
122.849
114.372
105.726
96.982
88.217
79.532
71.032
62.814
54.942
47.434
40.292
33.51
27.115
21.154
15.641
10.552
5.827
1.413
-2.712
-6.554
-10.121
-13.451
-16.587
-19.565
-22.392
-25.056
-27.547
-29.865
-32.039
-34.107
-36.078
-37.932
-39.623
-41.119
-42.411
-43.505
-44.402
-45.088
-45.552
-45.793
-45.831
-45.694
-45.396
-44.944
-44.328
-43.54
-42.588
-41.496
-40.297
-39.016
-37.672
-36.279
-34.855
-33.424
-32.004
-30.605
-29.226
-27.869
-26.537
-25.242
-23.996
-22.81
-21.689
-20.634
-19.647
-18.728
-17.877
-17.092
-16.37
-15.705
-15.091
-14.527
-14.014
-13.549
-13.13
-12.753
-12.414
-12.108
-11.832
-11.58
-11.345
-11.121
-10.901
-10.682
-10.456
-10.22
-9.968
-9.695
-9.395
-9.063
-8.693
-8.28
-7.819
-7.305
-6.734
-6.101
-5.405
-4.643
-3.812
-2.912
-1.943
-0.906
0.201
1.374
2.613
3.916
5.279
6.701
8.177
9.703
11.276
12.891
14.541
16.222
17.927
19.651
21.386
23.128
24.868
26.6
28.317
30.012
31.677
33.303
34.885
36.412
37.879
39.278
40.601
41.843
42.997
44.058
45.021
45.881
46.635
47.278
47.807
48.219
48.514
48.688
48.741
48.671
48.48
48.168
47.734
47.182
46.512
45.727
44.828
43.819
42.702
41.482
40.163
38.747
37.242
35.651
33.981
32.236
30.424
28.55
26.621
24.642
22.619
20.558
18.466
16.348
14.21
12.057
9.897
7.734
5.575
3.424
1.289
-0.826
-2.915
-4.972
-6.994
-8.974
-10.907
-12.788
-14.612
-16.374
-18.068
-19.69
-21.235
-22.698
-24.075
-25.363
-26.558
-27.656
-28.654
-29.55
-30.341
-31.025
-31.6
-32.064
-32.416
-32.656
-32.784
-32.8
-32.708
-32.509
-32.206
-31.806
-31.315
-30.738
-30.084
-29.359
-28.571
-27.73
-26.843
-25.92
-24.969
-23.998
-23.02
-22.045
-21.087
-20.157
-19.268
-18.431
-17.656
-16.955
-16.337
-15.807
-15.371
-15.037
-14.813
-14.718
-14.765
-14.959
-15.304
-15.8
-16.441
-17.216
-18.106
-19.079
-20.106
-21.161
-22.222
-23.28
-24.323
-25.328
-26.263
-27.09
-27.772
-28.292
-28.639
-28.797
-28.77
-28.588
-28.305
-28.01
-27.785
-27.675
-27.726
-27.985
-28.496
-29.327
-30.542
-32.182
-34.3
-36.941
-40.092
-43.687
-47.539
-51.333
-54.733
-57.398
-59.011
-59.308
-58.088
-55.32
-51.313
-46.569
-41.645
-37.116
-33.242
-30.088
-28.049
-27.364
-27.263
-26.882
-23.965
-14.299
3.162
27.883
58.568
88.885
117.258
148.835
188.353
245.768
327.13
425.334
528.408
618.695
676.206
688.813
653.918
573.22
454.016
312.728
164.379
28.368
-71.671
-129.542
-147.477
-135.152
-115.268
-97.37
-81.942
-71.513
-59.797
-47.706
-42.732
-42.76
-47.823
-56.191
-61.496
-65.072
-68.104
-69.691
-71.252
-71.547
-69.307
-65.421
-60.412
-54.984
-50.043
-45.968
-42.885
-40.941
-40.119
-40.217
-41.052
-42.493
-44.374
-46.556
-48.967
-51.489
-54.007
-56.437
-58.664
-60.596
-62.187
-63.406
-64.236
-64.685
-64.766
-64.508
-63.962
-63.171
-62.175
-61.014
-59.721
-58.342
-56.932
-55.547
-54.247
-53.072
-52.049
-51.195
-50.52
-50.027
-49.708
-49.55
-49.533
-49.638
-49.853
-50.166
-50.566
-51.038
-51.563
-52.124
-52.702
-53.28
-53.842
-54.372
-54.856
-55.279
-55.629
-55.896
-56.069
-56.135
-56.083
-55.898
-55.566
-55.074
-54.411
-53.562
-52.518
-51.268
-49.804
-48.119
-46.209
-44.069
-41.697
-39.092
-36.256
-33.189
-29.897
-26.383
-22.656
-18.723
-14.595
-10.283
-5.799
-1.157
3.626
8.535
13.552
18.659
23.836
29.061
34.314
39.572
44.812
50.009
55.139
60.178
65.1
69.88
74.494
78.918
83.128
87.101
90.816
94.251
97.388
100.209
102.696
104.834
106.609
108.011
109.028
109.653
109.878
109.7
109.116
108.124
106.727
104.927
102.73
100.141
97.169
93.826
90.124
86.077
81.701
77.015
72.037
66.788
61.291
55.567
49.642
43.538
37.282
30.899
24.413
17.852
11.239
4.601
-2.039
-8.655
-15.225
-21.725
-28.136
-34.436
-40.606
-46.629
-52.487
-58.164
-63.647
-68.923
-73.981
-78.809
-83.4
-87.747
-91.844
-95.688
-99.276
-102.607
-105.683
-108.503
-111.073
-113.394
-115.472
-117.313
-118.923
-120.309
-121.479
-122.441
-123.203
-123.775
-124.165
-124.383
-124.437
-124.337
-124.091
-123.708
-123.196
-122.564
-121.819
-120.969
-120.022
-118.985
-117.865
-116.668
-115.401
-114.069
-112.677
-111.231
-109.735
-108.192
-106.606
-104.981
-103.32
-101.625
-99.901
-98.15
-96.374
-94.577
-92.76
-90.927
-89.079
-87.219
-85.349
-83.473
-81.592
-79.709
-77.828
-75.951
-74.082
-72.222
-70.376
-68.546
-66.734
-64.942
-63.173
-61.429
-59.713
-58.027
-56.372
-54.751
-53.166
-51.62
-50.113
-48.648
-47.225
-45.846
-44.511
-43.222
-41.978
-40.779
-39.627
-38.52
-37.46
-36.445
-35.476
-34.551
-33.669
-32.83
-32.033
-31.275
-30.557
-29.876
-29.233
-28.625
-28.053
-27.516
-27.014
-26.547
-26.113
-25.714
-25.347
-25.014
-24.714
-24.446
-24.21
-24.007
-23.835
-23.696
-23.59
-23.515
-23.472
-23.46
-23.48
-23.531
-23.612
-23.721
-23.859
-24.024
-24.215
-24.43
-24.669
-24.929
-25.207
-25.502
-25.809
-26.126
-26.447
-26.768
-27.083
-27.389
-27.678
-27.945
-28.184
-28.387
-28.55
-28.666
-28.728
-28.731
-28.667
-28.53
-28.315
-28.016
-27.627
-27.139
-26.548
-25.846
-25.03
-24.095
-23.037
-21.853
-20.539
-19.092
-17.513
-15.806
-13.966
-11.995
-9.892
-7.659
-5.306
-2.848
-0.291
2.352
5.07
7.853
10.682
13.541
16.424
19.326
22.242
25.168
28.082
30.966
33.802
36.571
39.266
41.889
44.426
46.865
49.208
51.443
53.57
55.593
57.477
59.194
60.723
62.04
63.152
64.076
64.83
65.436
65.905
66.242
66.46
66.578
66.594
66.521
66.372
66.146
65.886
65.628
65.392
65.198
65.027
64.813
64.483
63.953
63.151
62.039
60.575
58.691
56.341
53.458
49.986
45.942
41.287
35.938
29.904
23.265
16.223
9.223
2.71
-3.051
-7.727
-10.904
-12.371
-12.053
-10.157
-7.457
-4.711
-2.153
-0.067
0.846
0.377
-1.151
-3.18
-2.718
3.1
14.27
32.3
56.372
84.994
121.565
165.215
216.428
276.999
343.416
417.688
496.479
570.643
631.124
658.761
641.864
577.802
470.387
341.011
211.666
102.494
29.296
-8.675
-19.491
-16.722
-13.672
-14.322
-17.109
-16.697
-9.386
3.427
17.91
29.629
36.481
38.848
37.862
34.983
31.289
27.605
24.954
23.896
24.408
26.225
28.858
31.842
34.847
37.469
39.261
39.996
39.654
38.349
36.305
33.703
30.669
27.366
23.973
20.648
17.542
14.755
12.33
10.309
8.723
7.591
6.928
6.729
6.966
7.604
8.607
9.942
11.579
13.48
15.593
17.864
20.23
22.645
25.076
27.5
29.896
32.253
34.559
36.813
39.024
41.198
43.338
45.445
47.515
49.549
51.55
53.524
55.476
57.408
59.322
61.22
63.103
64.973
66.829
68.67
70.494
72.298
74.085
75.856
77.616
79.367
81.113
82.86
84.612
86.375
88.152
89.948
91.764
93.602
95.463
97.349
99.259
101.193
103.15
105.126
107.121
109.132
111.158
113.195
115.239
117.284
119.325
121.357
123.372
125.362
127.314
129.215
131.055
132.824
134.509
136.099
137.581
138.941
140.167
141.249
142.175
142.929
143.489
143.834
143.949
143.83
143.481
142.899
142.082
141.028
139.741
138.233
136.506
134.553
132.35
129.872
127.109
124.063
120.75
117.187
113.376
109.306
104.961
100.338
95.435
90.244
84.742
78.894
72.694
66.176
59.406
52.456
45.37
38.175
30.887
23.524
16.125
8.734
1.392
-5.876
-13.037
-20.046
-26.828
-33.299
-39.416
-45.188
-50.669
-55.91
-60.935
-65.753
-70.365
-74.788
-79.045
-83.156
-87.125
-90.946
-94.628
-98.199
-101.713
-105.233
-108.785
-112.357
-115.908
-119.403
-122.824
-126.165
-129.42
-132.568
-135.596
-138.5
-141.296
-144.002
-146.626
-149.161
-151.586
-153.879
-156.037
-158.071
-160.003
-161.852
-163.628
-165.341
-167.002
-168.627
-170.23
-171.811
-173.363
-174.879
-176.355
-177.796
-179.208
-180.594
-181.955
-183.29
-184.594
-185.867
-187.107
-188.311
-189.475
-190.593
-191.661
-192.679
-193.647
-194.567
-195.435
-196.251
-197.013
-197.718
-198.366
-198.955
-199.48
-199.94
-200.333
-200.656
-200.908
-201.088
-201.193
-201.221
-201.171
-201.04
-200.826
-200.528
-200.144
-199.672
-199.111
-198.461
-197.72
-196.888
-195.963
-194.947
-193.839
-192.64
-191.35
-189.971
-188.505
-186.953
-185.318
-183.605
-181.816
-179.955
-178.027
-176.036
-173.987
-171.886
-169.738
-167.548
-165.323
-163.071
-160.798
-158.512
-156.221
-153.933
-151.656
-149.398
-147.168
-144.974
-142.823
-140.725
-138.686
-136.714
-134.818
-133.003
-131.277
-129.647
-128.118
-126.695
-125.383
-124.186
-123.106
-122.147
-121.311
-120.599
-120.012
-119.552
-119.217
-119.008
-118.923
-118.962
-119.12
-119.395
-119.782
-120.278
-120.876
-121.571
-122.357
-123.226
-124.173
-125.188
-126.265
-127.394
-128.569
-129.779
-131.015
-132.268
-133.53
-134.79
-136.039
-137.269
-138.469
-139.633
-140.749
-141.811
-142.808
-143.733
-144.575
-145.328
-145.983
-146.531
-146.965
-147.277
-147.461
-147.509
-147.416
-147.176
-146.784
-146.235
-145.526
-144.653
-143.613
-142.405
-141.028
-139.48
-137.761
-135.874
-133.819
-131.6
-129.219
-126.68
-123.988
-121.15
-118.171
-115.059
-111.823
-108.474
-105.022
-101.479
-97.858
-94.172
-90.436
-86.663
-82.868
-79.065
-75.268
-71.494
-67.757
-64.073
-60.458
-56.928
-53.497
-50.181
-46.996
-43.955
-41.07
-38.351
-35.804
-33.439
-31.266
-29.298
-27.544
-26.008
-24.69
-23.59
-22.703
-22.021
-21.526
-21.185
-20.965
-20.835
-20.769
-20.746
-20.742
-20.729
-20.668
-20.519
-20.248
-19.836
-19.269
-18.528
-17.605
-16.499
-15.25
-13.939
-12.646
-11.44
-10.371
-9.46
-8.753
-8.317
-8.217
-8.51
-9.236
-10.384
-11.974
-14.087
-16.698
-19.684
-22.792
-25.556
-27.559
-28.518
-28.026
-25.624
-21.136
-14.549
-6.214
2.983
12.341
21.335
29.137
35.053
39.044
41.511
43.657
47.466
54.811
67.755
88.962
121.15
164.261
215.377
271.544
328.973
389.383
460.13
540.604
625.102
699.508
738.465
729.158
669.734
565.529
437.839
304.737
178.975
76.456
5.655
-29.865
-27.746
4.342
51.27
98.891
131.86
140.616
128.2
102.457
75.417
57.896
51.731
53.859
58.437
60.771
60.578
59.595
60.086
62.96
67.497
72.691
77.665
81.975
85.49
88.109
89.769
90.519
90.48
89.755
88.424
86.565
84.262
81.621
78.764
75.797
72.837
70.024
67.467
65.24
63.393
61.937
60.873
60.206
59.911
59.952
60.292
60.894
61.723
62.75
63.927
65.2
66.508
67.784
68.984
70.075
71.036
71.856
72.53
73.057
73.45
73.726
73.9
73.981
73.978
73.9
73.758
73.57
73.353
73.125
72.904
72.705
72.544
72.439
72.403
72.449
72.589
72.834
73.198
73.694
74.337
75.142
76.125
77.3
78.679
80.277
82.105
84.171
86.485
89.051
91.874
94.958
98.303
101.91
105.775
109.895
114.264
118.874
123.715
128.775
134.039
139.491
145.113
150.885
156.787
162.796
168.887
175.035
181.215
187.4
193.56
199.668
205.694
211.609
217.382
222.984
228.385
233.556
238.47
243.099
247.419
251.404
255.031
258.281
261.132
263.569
265.574
267.137
268.244
268.889
269.066
268.771
268.006
266.771
265.074
262.92
260.319
257.286
253.833
249.979
245.741
241.141
236.202
230.948
225.406
219.603
213.568
207.33
200.919
194.366
187.703
180.959
174.165
167.353
160.552
153.792
147.101
140.505
134.032
127.706
121.548
115.581
109.822
104.289
98.995
93.953
89.174
84.665
80.431
76.477
72.804
69.411
66.296
63.453
60.877
58.559
56.489
54.656
53.048
51.652
50.452
49.435
48.582
47.88
47.309
46.854
46.496
46.219
46.005
45.838
45.702
45.581
45.461
45.328
45.168
44.971
44.726
44.423
44.054
43.612
43.091
42.487
41.795
41.015
40.144
39.183
38.133
36.995
35.772
34.467
33.083
31.625
30.098
28.506
26.856
25.153
23.403
21.612
19.787
17.933
16.057
14.165
12.261
10.352
8.442
6.536
4.64
2.757
0.891
-0.955
-2.776
-4.571
-6.338
-8.074
-9.777
-11.448
-13.085
-14.686
-16.251
-17.781
-19.272
-20.726
-22.142
-23.518
-24.853
-26.147
-27.4
-28.608
-29.773
-30.891
-31.961
-32.981
-33.949
-34.862
-35.719
-36.516
-37.251
-37.921
-38.524
-39.058
-39.521
-39.91
-40.222
-40.457
-40.612
-40.685
-40.674
-40.579
-40.399
-40.133
-39.781
-39.343
-38.82
-38.214
-37.525
-36.757
-35.911
-34.99
-33.998
-32.939
-31.816
-30.636
-29.403
-28.124
-26.805
-25.454
-24.076
-22.68
-21.272
-19.861
-18.454
-17.059
-15.683
-14.334
-13.019
-11.747
-10.524
-9.357
-8.254
-7.22
-6.262
-5.386
-4.598
-3.902
-3.304
-2.81
-2.424
-2.152
-1.998
-1.967
-2.063
-2.289
-2.648
-3.142
-3.775
-4.546
-5.459
-6.513
-7.708
-9.046
-10.525
-12.147
-13.911
-15.814
-17.857
-20.037
-22.354
-24.806
-27.39
-30.106
-32.951
-35.923
-39.021
-42.243
-45.584
-49.042
-52.612
-56.288
-60.063
-63.93
-67.879
-71.902
-75.991
-80.135
-84.326
-88.555
-92.812
-97.091
-101.382
-105.675
-109.961
-114.228
-118.461
-122.649
-126.777
-130.832
-134.799
-138.661
-142.404
-146.017
-149.486
-152.798
-155.938
-158.883
-161.619
-164.136
-166.428
-168.49
-170.326
-171.939
-173.343
-174.565
-175.626
-176.55
-177.356
-178.046
-178.621
-179.083
-179.433
-179.677
-179.809
-179.807
-179.642
-179.297
-178.744
-177.959
-176.904
-175.512
-173.727
-171.509
-168.824
-165.675
-162.083
-158.072
-153.686
-148.985
-144.039
-138.949
-133.829
-128.761
-123.826
-119.101
-114.654
-110.595
-107.022
-104.005
-101.609
-99.86
-98.747
-98.251
-98.313
-98.845
-99.753
-100.918
-102.204
-103.528
-104.821
-106.04
-107.181
-108.188
-109.019
-109.659
-110.091
-110.344
-110.476
-110.527
-110.599
-110.862
-111.404
-112.268
-113.398
-114.544
-115.468
-115.972
-115.749
-114.498
-112.059
-108.391
-103.867
-99.236
-95.112
-91.996
-90.23
-89.933
-91.191
-93.897
-97.133
-99.332
-98.814
-93.706
-82.655
-64.82
-38.896
-3.523
41.771
96.652
158.483
222.276
284.303
342.394
397.499
452.5
505.569
550.232
575.068
567.396
522.671
442.539
334.345
212.185
88.793
-21.228
-101.21
-144.645
-152.48
-134.473
-109.642
-90.115
-80.344
-79.383
-80.174
-79.487
-78.381
-78.577
-82.646
-90.665
-100.576
-110.42
-118.419
-123.798
-126.627
-127.106
-125.701
-123.049
-119.758
-116.486
-113.808
-111.967
-111.032
-110.97
-111.626
-112.861
-114.547
-116.508
-118.587
-120.675
-122.668
-124.484
-126.037
-127.204
-127.895
-128.057
-127.655
-126.689
-125.171
-123.11
-120.546
-117.53
-114.112
-110.345
-106.276
-101.946
-97.411
-92.734
-87.982
-83.229
-78.529
-73.923
-69.448
-65.126
-60.973
-57.001
-53.209
-49.587
-46.135
-42.851
-39.733
-36.783
-33.997
-31.367
-28.885
-26.541
-24.324
-22.225
-20.232
-18.332
-16.514
-14.767
-13.078
-11.437
-9.833
-8.253
-6.684
-5.111
-3.52
-1.896
-0.227
1.502
3.305
5.199
7.198
9.313
11.552
13.924
16.433
19.085
21.882
24.824
27.905
31.123
34.476
37.969
41.606
45.385
49.291
53.302
57.401
61.571
65.792
70.036
74.267
78.458
82.593
86.674
90.704
94.675
98.567
102.347
105.988
109.473
112.801
115.972
118.97
121.781
124.41
126.885
129.246
131.523
133.697
135.723
137.561
139.19
140.596
141.776
142.699
143.318
143.591
143.493
143.026
142.189
140.945
139.226
136.954
134.073
130.586
126.534
121.931
116.783
111.118
104.971
98.437
91.635
84.651
77.542
70.344
63.095
55.872
48.784
41.93
35.398
29.233
23.461
18.151
13.363
9.117
5.406
2.157
-0.73
-3.309
-5.608
-7.65
-9.451
-11.053
-12.514
-13.869
-15.148
-16.376
-17.581
-18.825
-20.168
-21.627
-23.195
-24.827
-26.453
-28.04
-29.57
-31.02
-32.379
-33.633
-34.766
-35.786
-36.707
-37.532
-38.254
-38.851
-39.299
-39.597
-39.759
-39.807
-39.779
-39.696
-39.58
-39.454
-39.338
-39.246
-39.187
-39.16
-39.158
-39.181
-39.237
-39.335
-39.484
-39.691
-39.958
-40.287
-40.679
-41.132
-41.646
-42.215
-42.837
-43.509
-44.231
-45.005
-45.835
-46.721
-47.664
-48.664
-49.721
-50.832
-51.995
-53.205
-54.458
-55.75
-57.077
-58.434
-59.818
-61.224
-62.648
-64.086
-65.532
-66.982
-68.429
-69.867
-71.29
-72.692
-74.067
-75.407
-76.708
-77.964
-79.17
-80.321
-81.413
-82.441
-83.402
-84.291
-85.105
-85.841
-86.496
-87.068
-87.554
-87.955
-88.268
-88.496
-88.637
-88.694
-88.667
-88.559
-88.369
-88.102
-87.758
-87.342
-86.856
-86.304
-85.691
-85.02
-84.297
-83.526
-82.713
-81.861
-80.976
-80.062
-79.124
-78.166
-77.192
-76.205
-75.209
-74.209
-73.206
-72.203
-71.203
-70.207
-69.216
-68.231
-67.253
-66.281
-65.316
-64.358
-63.405
-62.456
-61.511
-60.568
-59.624
-58.678
-57.725
-56.762
-55.787
-54.793
-53.777
-52.733
-51.658
-50.547
-49.395
-48.197
-46.948
-45.644
-44.28
-42.852
-41.356
-39.788
-38.144
-36.422
-34.618
-32.732
-30.761
-28.705
-26.562
-24.332
-22.014
-19.61
-17.12
-14.545
-11.887
-9.15
-6.337
-3.453
-0.504
2.504
5.562
8.661
11.791
14.941
18.098
21.252
24.389
27.497
30.562
33.573
36.517
39.381
42.153
44.818
47.365
49.779
52.048
54.158
56.1
57.859
59.427
60.798
61.967
62.925
63.665
64.171
64.434
64.451
64.221
63.742
63.021
62.07
60.909
59.576
58.105
56.526
54.868
53.145
51.382
49.61
47.865
46.185
44.607
43.143
41.809
40.623
39.589
38.685
37.85
36.988
36.01
34.858
33.497
31.886
29.969
27.672
24.928
21.687
17.937
13.667
8.802
3.337
-2.612
-8.81
-14.816
-20.169
-24.543
-27.575
-28.801
-27.986
-25.145
-20.54
-14.982
-9.274
-3.921
0.324
2.668
2.929
1.477
-0.81
-2.145
-0.497
5.981
19.92
44.371
79.974
124.795
176.682
232.281
292.071
361.714
440.968
524.329
598.749
642.147
640.948
591.852
500.637
384.829
260.164
139.768
36.849
-42.07
-93.474
-118.654
-126.917
-125.954
-120.465
-112.592
-99.562
-80.98
-59.942
-39.699
-24.377
-16.447
-15.752
-21.15
-30.681
-41.703
-52.072
-60.576
-66.459
-69.386
-69.294
-66.366
-61.318
-55.433
-49.851
-45.178
-41.693
-39.433
-38.442
-38.774
-40.237
-42.402
-44.865
-47.374
-49.807
-52.122
-54.221
-55.979
-57.331
-58.273
-58.833
-59.03
-58.859
-58.308
-57.391
-56.139
-54.596
-52.803
-50.793
-48.606
-46.289
-43.894
-41.482
-39.097
-36.769
-34.525
-32.381
-30.347
-28.428
-26.621
-24.914
-23.297
-21.762
-20.3
-18.905
-17.567
-16.273
-15.013
-13.775
-12.546
-11.319
-10.083
-8.827
-7.545
-6.229
-4.873
-3.472
-2.019
-0.506
1.076
2.736
4.483
6.325
8.272
10.332
12.512
14.82
17.259
19.834
22.549
25.406
28.407
31.55
34.836
38.261
41.823
45.518
49.337
53.275
57.322
61.468
65.704
70.016
74.392
78.819
83.28
87.76
92.243
96.711
101.145
105.526
109.834
114.049
118.15
122.117
125.929
129.565
133.005
136.23
139.22
141.957
144.424
146.604
148.482
150.044
151.277
152.171
152.714
152.9
152.723
152.177
151.26
149.971
148.312
146.284
143.892
141.142
138.043
134.604
130.837
126.756
122.377
117.715
112.79
107.621
102.23
96.637
90.867
84.943
78.889
72.73
66.491
60.197
53.873
47.545
41.238
34.976
28.782
22.679
16.689
10.834
5.131
-0.4
-5.743
-10.882
-15.803
-20.493
-24.942
-29.141
-33.081
-36.758
-40.166
-43.303
-46.17
-48.767
-51.096
-53.163
-54.971
-56.529
-57.843
-58.924
-59.779
-60.421
-60.861
-61.111
-61.184
-61.094
-60.854
-60.478
-59.98
-59.374
-58.673
-57.891
-57.041
-56.135
-55.185
-54.202
-53.198
-52.183
-51.166
-50.156
-49.161
-48.187
-47.242
-46.33
-45.454
-44.62
-43.828
-43.08
-42.379
-41.724
-41.114
-40.55
-40.03
-39.553
-39.115
-38.715
-38.349
-38.014
-37.706
-37.422
-37.158
-36.911
-36.677
-36.453
-36.236
-36.023
-35.813
-35.602
-35.39
-35.175
-34.955
-34.729
-34.499
-34.263
-34.022
-33.778
-33.533
-33.288
-33.046
-32.81
-32.582
-32.366
-32.166
-31.984
-31.825
-31.691
-31.588
-31.518
-31.487
-31.498
-31.555
-31.661
-31.821
-32.036
-32.311
-32.646
-33.044
-33.505
-34.029
-34.618
-35.271
-35.986
-36.763
-37.599
-38.493
-39.44
-40.437
-41.481
-42.566
-43.688
-44.841
-46.02
-47.219
-48.431
-49.65
-50.871
-52.087
-53.291
-54.477
-55.638
-56.767
-57.859
-58.907
-59.905
-60.847
-61.728
-62.545
-63.293
-63.969
-64.571
-65.097
-65.546
-65.918
-66.213
-66.433
-66.578
-66.652
-66.656
-66.593
-66.468
-66.285
-66.049
-65.764
-65.437
-65.073
-64.679
-64.26
-63.823
-63.374
-62.92
-62.467
-62.02
-61.586
-61.172
-60.783
-60.423
-60.099
-59.814
-59.573
-59.376
-59.227
-59.127
-59.074
-59.068
-59.107
-59.187
-59.305
-59.457
-59.638
-59.845
-60.074
-60.321
-60.579
-60.847
-61.117
-61.383
-61.636
-61.867
-62.065
-62.219
-62.32
-62.361
-62.334
-62.232
-62.05
-61.787
-61.437
-60.998
-60.464
-59.824
-59.07
-58.206
-57.238
-56.179
-55.051
-53.871
-52.659
-51.44
-50.236
-49.057
-47.91
-46.782
-45.658
-44.536
-43.424
-42.343
-41.315
-40.342
-39.419
-38.537
-37.673
-36.807
-35.919
-34.967
-33.922
-32.784
-31.569
-30.332
-29.139
-28.027
-27.011
-26.084
-25.229
-24.454
-23.776
-23.208
-22.779
-22.514
-22.447
-22.638
-23.13
-23.931
-25.018
-26.328
-27.782
-29.335
-30.974
-32.72
-34.617
-36.687
-38.949
-41.401
-44.018
-46.781
-49.671
-52.654
-55.704
-58.811
-61.959
-65.18
-68.559
-72.095
-75.684
-79.072
-81.837
-83.59
-84.077
-83.053
-80.239
-75.506
-68.915
-60.86
-52.229
-43.867
-36.291
-29.935
-25.166
-22.075
-20.407
-19.298
-16.917
-11.333
-1.11
15.267
39.296
72.121
114.672
165.528
220.407
275.618
327.618
376.737
427.683
479.632
529.46
568.647
580.094
556.066
493.183
392.183
270.82
145.59
34.173
-41.394
-77.044
-77.527
-54.189
-28.218
-10.547
-3.177
-3.97
-5.285
-3.969
-1.441
0.306
-1.383
-6.727
-14.023
-21.621
-27.783
-31.749
-33.551
-33.263
-31.346
-28.397
-24.899
-21.429
-18.531
-16.435
-15.233
-14.935
-15.391
-16.475
-18.081
-20.042
-22.219
-24.514
-26.832
-29.097
-31.228
-33.107
-34.647
-35.793
-36.509
-36.793
-36.646
-36.07
-35.094
-33.76
-32.108
-30.184
-28.023
-25.658
-23.133
-20.502
-17.823
-15.161
-12.563
-10.061
-7.687
-5.456
-3.381
-1.471
0.277
1.873
3.322
4.629
5.796
6.824
7.72
8.496
9.163
9.735
10.224
10.645
11.012
11.336
11.63
11.905
12.17
12.435
12.714
13.019
13.365
13.768
14.248
14.825
15.518
16.345
17.322
18.464
19.783
21.295
23.008
24.93
27.069
29.431
32.029
34.878
37.985
41.347
44.953
48.784
52.824
57.059
61.466
66.013
70.679
75.446
80.31
85.283
90.365
95.539
100.781
106.048
111.314
116.569
121.802
127.01
132.189
137.326
142.431
147.533
152.632
157.702
162.686
167.486
172.032
176.279
180.189
183.747
186.921
189.662
191.933
193.704
194.937
195.599
195.632
194.945
193.497
191.29
188.364
184.816
180.716
176.107
171.037
165.545
159.676
153.491
147.032
140.327
133.421
126.366
119.24
112.152
105.172
98.338
91.659
85.107
78.67
72.36
66.179
60.129
54.216
48.441
42.824
37.402
32.193
27.207
22.438
17.859
13.464
9.257
5.254
1.477
-2.054
-5.336
-8.357
-11.109
-13.587
-15.795
-17.747
-19.467
-20.977
-22.292
-23.426
-24.39
-25.197
-25.867
-26.419
-26.872
-27.247
-27.561
-27.834
-28.087
-28.338
-28.601
-28.887
-29.204
-29.56
-29.961
-30.414
-30.922
-31.488
-32.113
-32.8
-33.547
-34.353
-35.213
-36.124
-37.077
-38.063
-39.075
-40.1
-41.128
-42.146
-43.141
-44.101
-45.013
-45.862
-46.636
-47.322
-47.908
-48.38
-48.729
-48.943
-49.014
-48.932
-48.691
-48.286
-47.711
-46.965
-46.047
-44.956
-43.695
-42.268
-40.679
-38.934
-37.04
-35.006
-32.842
-30.56
-28.171
-25.69
-23.131
-20.509
-17.841
-15.143
-12.433
-9.727
-7.042
-4.396
-1.806
0.713
3.143
5.47
7.679
9.757
11.69
13.467
15.079
16.516
17.771
18.839
19.716
20.399
20.887
21.182
21.284
21.199
20.931
20.487
19.875
19.105
18.187
17.134
15.958
14.675
13.299
11.846
10.331
8.773
7.186
5.589
3.997
2.428
0.898
-0.578
-1.984
-3.306
-4.53
-5.643
-6.635
-7.495
-8.215
-8.788
-9.208
-9.47
-9.574
-9.517
-9.301
-8.927
-8.399
-7.723
-6.906
-5.956
-4.883
-3.699
-2.416
-1.049
0.387
1.877
3.403
4.948
6.494
8.024
9.518
10.959
12.328
13.607
14.779
15.827
16.734
17.486
18.068
18.467
18.672
18.673
18.462
18.033
17.379
16.499
15.39
14.051
12.484
10.693
8.681
6.456
4.027
1.403
-1.403
-4.378
-7.508
-10.775
-14.163
-17.654
-21.229
-24.867
-28.55
-32.255
-35.963
-39.651
-43.301
-46.889
-50.397
-53.806
-57.096
-60.253
-63.259
-66.103
-68.771
-71.256
-73.548
-75.64
-77.529
-79.212
-80.685
-81.949
-83.004
-83.853
-84.498
-84.946
-85.205
-85.283
-85.193
-84.946
-84.558
-84.043
-83.42
-82.705
-81.915
-81.065
-80.17
-79.247
-78.318
-77.406
-76.533
-75.718
-74.972
-74.31
-73.739
-73.262
-72.872
-72.544
-72.254
-71.982
-71.712
-71.439
-71.152
-70.839
-70.477
-70.04
-69.507
-68.872
-68.134
-67.286
-66.332
-65.29
-64.216
-63.215
-62.386
-61.818
-61.568
-61.661
-62.137
-63.061
-64.49
-66.476
-69.048
-72.182
-75.887
-80.243
-85.208
-90.63
-96.206
-101.403
-105.752
-108.956
-110.612
-110.269
-107.772
-103.163
-96.879
-89.916
-83.041
-76.736
-71.717
-68.581
-67.294
-67.351
-67.421
-65.363
-59.234
-47.137
-26.682
4.682
47.115
97.989
154.25
211.978
272.027
340.516
417.306
496.512
564.441
599.329
589.216
533.96
440.9
325.731
202.9
82.244
-25.136
-107.615
-158.424
-174.314
-157.817
-120.082
-72.06
-24.705
9.852
25.684
21.378
1.137
-23.744
-43.869
-54.492
-56.025
-54.394
-54.025
-55.797
-58.709
-60.055
-58.606
-55.428
-51.701
-48.433
-46.211
-44.908
-44.405
-44.822
-46.14
-48.112
-50.528
-53.214
-56.005
-58.87
-61.763
-64.532
-67.038
-69.202
-70.958
-72.27
-73.134
-73.522
-73.418
-72.836
-71.807
-70.367
-68.556
-66.407
-63.947
-61.217
-58.271
-55.168
-51.978
-48.756
-45.542
-42.372
-39.271
-36.258
-33.349
-30.549
-27.853
-25.261
-22.773
-20.394
-18.127
-15.975
-13.934
-12
-10.166
-8.426
-6.776
-5.21
-3.72
-2.3
-0.944
0.353
1.594
2.789
3.947
5.078
6.195
7.312
8.442
9.599
10.798
12.054
13.38
14.79
16.295
17.907
19.637
21.495
23.49
25.63
27.921
30.368
32.976
35.747
38.68
41.775
45.028
48.435
51.989
55.683
59.505
63.445
67.489
71.624
75.834
80.1
84.406
88.73
93.053
97.352
101.605
105.787
109.876
113.847
117.676
121.339
124.811
128.071
131.094
133.86
136.346
138.534
140.404
141.94
143.124
143.943
144.385
144.439
144.095
143.348
142.193
140.627
138.65
136.264
133.473
130.282
126.699
122.735
118.401
113.711
108.682
103.329
97.674
91.735
85.537
79.102
72.456
65.623
58.63
51.505
44.276
36.969
29.614
22.239
14.871
7.539
0.27
-6.909
-13.972
-20.894
-27.651
-34.22
-40.578
-46.706
-52.585
-58.196
-63.525
-68.557
-73.28
-77.682
-81.753
-85.488
-88.879
-91.924
-94.618
-96.964
-98.96
-100.611
-101.922
-102.897
-103.546
-103.876
-103.899
-103.625
-103.068
-102.242
-101.161
-99.841
-98.299
-96.553
-94.62
-92.519
-90.269
-87.889
-85.398
-82.816
-80.163
-77.456
-74.716
-71.96
-69.208
-66.476
-63.783
-61.145
-58.578
-56.097
-53.717
-51.451
-49.311
-47.309
-45.456
-43.761
-42.231
-40.874
-39.696
-38.702
-37.894
-37.276
-36.849
-36.611
-36.562
-36.7
-37.019
-37.517
-38.185
-39.019
-40.009
-41.148
-42.426
-43.833
-45.358
-46.99
-48.717
-50.526
-52.405
-54.341
-56.321
-58.331
-60.359
-62.391
-64.414
-66.416
-68.383
-70.305
-72.17
-73.966
-75.683
-77.311
-78.841
-80.266
-81.577
-82.768
-83.834
-84.77
-85.573
-86.239
-86.768
-87.157
-87.409
-87.523
-87.502
-87.349
-87.067
-86.661
-86.136
-85.497
-84.752
-83.906
-82.968
-81.944
-80.843
-79.673
-78.443
-77.161
-75.836
-74.477
-73.091
-71.688
-70.275
-68.86
-67.451
-66.055
-64.679
-63.33
-62.012
-60.732
-59.494
-58.303
-57.16
-56.07
-55.033
-54.05
-53.123
-52.25
-51.431
-50.664
-49.948
-49.281
-48.658
-48.078
-47.537
-47.03
-46.553
-46.102
-45.671
-45.257
-44.855
-44.459
-44.066
-43.671
-43.271
-42.861
-42.438
-41.999
-41.541
-41.061
-40.557
-40.027
-39.471
-38.888
-38.278
-37.644
-36.99
-36.321
-35.641
-34.955
-34.271
-33.593
-32.93
-32.288
-31.671
-31.085
-30.534
-30.028
-29.577
-29.188
-28.868
-28.623
-28.46
-28.385
-28.405
-28.522
-28.731
-29.035
-29.435
-29.938
-30.563
-31.315
-32.196
-33.207
-34.343
-35.595
-36.96
-38.415
-39.929
-41.473
-43.019
-44.547
-46.051
-47.506
-48.882
-50.138
-51.223
-52.102
-52.76
-53.176
-53.345
-53.277
-52.987
-52.519
-51.941
-51.31
-50.695
-50.167
-49.785
-49.627
-49.757
-50.268
-51.308
-52.917
-55.049
-57.557
-60.144
-62.534
-64.547
-65.916
-66.299
-65.531
-63.58
-60.769
-57.822
-55.262
-53.425
-52.533
-52.658
-53.835
-55.921
-58.058
-58.819
-56.833
-50.624
-39.117
-21.673
2.876
35.616
76.849
126.649
182.837
240.673
296.84
348.202
395.317
443.741
493.122
539.811
574.012
576.628
538.439
455.957
331.903
187.113
39.909
-90.288
-180.939
-229.328
-238.335
-216.087
-179.858
-134.896
-83.895
-32.125
16.39
51.393
65.723
61.066
45.156
28.81
18.59
14.414
12.086
7.985
1.634
-4.843
-8.433
-7.969
-4.09
1.966
8.657
14.96
20.481
24.818
27.759
29.381
29.813
29.34
28.365
27.27
26.336
25.739
25.549
25.747
26.31
27.216
28.43
29.896
31.554
33.372
35.325
37.406
39.604
41.879
44.179
46.446
48.621
50.662
52.547
54.252
55.762
57.063
58.144
59.003
59.652
60.095
60.339
60.386
60.243
59.921
59.441
58.823
58.089
57.256
56.34
55.358
54.329
53.271
52.202
51.136
50.09
49.081
48.13
47.256
46.481
45.823
45.301
44.932
44.737
44.732
44.933
45.355
46.012
46.916
48.08
49.513
51.224
53.22
55.504
58.082
60.953
64.117
67.572
71.313
75.333
79.624
84.177
88.978
94.015
99.27
104.728
110.368
116.171
122.114
128.173
134.325
140.543
146.802
153.072
159.327
165.537
171.675
177.709
183.612
189.355
194.91
200.248
205.342
210.166
214.695
218.905
222.773
226.278
229.401
232.123
234.429
236.305
237.737
238.716
239.234
239.286
238.868
237.978
236.62
234.795
232.511
229.775
226.597
222.992
218.972
214.556
209.76
204.607
199.117
193.314
187.224
180.871
174.283
167.488
160.514
153.389
146.143
138.805
131.404
123.969
116.528
109.109
101.741
94.448
87.257
80.193
73.278
66.534
59.981
53.637
47.52
41.644
36.023
30.666
25.585
20.786
16.275
12.056
8.131
4.499
1.16
-1.89
-4.656
-7.145
-9.363
-11.319
-13.025
-14.491
-15.728
-16.751
-17.573
-18.208
-18.671
-18.978
-19.146
-19.189
-19.125
-18.969
-18.738
-18.447
-18.112
-17.747
-17.367
-16.984
-16.613
-16.264
-15.95
-15.679
-15.463
-15.309
-15.225
-15.217
-15.292
-15.454
-15.707
-16.054
-16.497
-17.037
-17.674
-18.41
-19.241
-20.168
-21.186
-22.294
-23.486
-24.759
-26.106
-27.524
-29.004
-30.542
-32.131
-33.764
-35.435
-37.138
-38.865
-40.612
-42.371
-44.137
-45.905
-47.668
-49.423
-51.164
-52.888
-54.591
-56.269
-57.919
-59.54
-61.129
-62.685
-64.205
-65.69
-67.138
-68.549
-69.925
-71.265
-72.572
-73.848
-75.094
-76.314
-77.51
-78.687
-79.846
-80.991
-82.124
-83.249
-84.368
-85.484
-86.597
-87.709
-88.823
-89.938
-91.056
-92.177
-93.301
-94.426
-95.55
-96.673
-97.793
-98.905
-100.009
-101.1
-102.175
-103.231
-104.263
-105.268
-106.239
-107.173
-108.063
-108.903
-109.687
-110.41
-111.065
-111.646
-112.148
-112.567
-112.899
-113.14
-113.29
-113.347
-113.311
-113.185
-112.97
-112.669
-112.285
-111.823
-111.287
-110.682
-110.013
-109.285
-108.506
-107.684
-106.829
-105.951
-105.06
-104.166
-103.278
-102.409
-101.567
-100.759
-99.992
-99.274
-98.619
-98.046
-97.574
-97.213
-96.972
-96.854
-96.859
-96.979
-97.202
-97.498
-97.84
-98.206
-98.576
-98.947
-99.311
-99.651
-99.942
-100.146
-100.228
-100.18
-99.996
-99.666
-99.204
-98.645
-98.05
-97.524
-97.161
-97.013
-97.13
-97.553
-98.324
-99.516
-101.189
-103.382
-106.152
-109.562
-113.617
-118.257
-123.291
-128.357
-133.076
-137.11
-140.108
-141.7
-141.621
-139.856
-136.724
-132.899
-129.085
-125.69
-122.996
-121.47
-121.458
-122.76
-124.537
-125.17
-122.789
-116.155
-104.122
-84.887
-56.614
-17.896
30.274
83.926
139.266
192.877
245.9
303.797
365.985
429.015
482.43
505.579
488.02
425.264
318.728
188.811
54.03
-67.539
-153.96
-201.118
-212.598
-198.172
-178.274
-163.646
-157.243
-157.762
-157.332
-153.285
-147.463
-141.94
-140.11
-142.605
-147.588
-153.64
-159.134
-162.749
-164.154
-163.22
-160.058
-155.272
-149.521
-143.326
-137.236
-131.747
-127.09
-123.392
-120.671
-118.775
-117.558
-116.898
-116.636
-116.641
-116.83
-117.118
-117.418
-117.639
-117.66
-117.39
-116.78
-115.801
-114.443
-112.7
-110.576
-108.1
-105.322
-102.289
-99.049
-95.637
-92.085
-88.438
-84.753
-81.09
-77.513
-74.067
-70.781
-67.679
-64.775
-62.077
-59.587
-57.291
-55.172
-53.215
-51.408
-49.741
-48.205
-46.786
-45.466
-44.227
-43.05
-41.918
-40.813
-39.719
-38.616
-37.491
-36.328
-35.114
-33.835
-32.479
-31.03
-29.471
-27.788
-25.965
-23.988
-21.843
-19.516
-16.997
-14.276
-11.347
-8.202
-4.84
-1.258
2.544
6.563
10.796
15.236
19.877
24.708
29.717
34.892
40.217
45.675
51.249
56.917
62.659
68.452
74.273
80.097
85.899
91.654
97.334
102.913
108.364
113.662
118.778
123.687
128.363
132.781
136.918
140.752
144.263
147.431
150.239
152.673
154.719
156.367
157.608
158.435
158.844
158.834
158.405
157.559
156.302
154.642
152.587
150.151
147.345
144.188
140.695
136.886
132.782
128.405
123.779
118.929
113.879
108.657
103.288
97.802
92.224
86.583
80.905
75.219
69.549
63.921
58.36
52.89
47.532
42.308
37.237
32.337
27.623
23.112
18.814
14.742
10.903
7.305
3.954
0.851
-1.999
-4.599
-6.949
-9.052
-10.913
-12.539
-13.936
-15.113
-16.081
-16.849
-17.429
-17.833
-18.075
-18.167
-18.123
-17.957
-17.683
-17.315
-16.868
-16.355
-15.79
-15.187
-14.558
-13.917
-13.274
-12.64
-12.027
-11.443
-10.896
-10.396
-9.947
-9.558
-9.233
-8.976
-8.791
-8.682
-8.651
-8.699
-8.827
-9.035
-9.324
-9.692
-10.137
-10.659
-11.255
-11.922
-12.658
-13.46
-14.323
-15.244
-16.22
-17.244
-18.314
-19.422
-20.565
-21.738
-22.935
-24.15
-25.38
-26.619
-27.862
-29.105
-30.343
-31.572
-32.787
-33.985
-35.16
-36.31
-37.431
-38.519
-39.57
-40.583
-41.554
-42.479
-43.358
-44.186
-44.963
-45.686
-46.353
-46.963
-47.515
-48.008
-48.441
-48.816
-49.133
-49.394
-49.599
-49.752
-49.855
-49.91
-49.922
-49.892
-49.825
-49.724
-49.594
-49.44
-49.264
-49.072
-48.868
-48.658
-48.446
-48.236
-48.033
-47.841
-47.665
-47.509
-47.378
-47.274
-47.203
-47.167
-47.17
-47.215
-47.304
-47.439
-47.62
-47.849
-48.125
-48.448
-48.815
-49.224
-49.673
-50.157
-50.674
-51.218
-51.784
-52.368
-52.962
-53.562
-54.161
-54.752
-55.33
-55.886
-56.416
-56.912
-57.369
-57.781
-58.142
-58.446
-58.69
-58.868
-58.976
-59.011
-58.97
-58.851
-58.654
-58.379
-58.027
-57.602
-57.105
-56.542
-55.917
-55.236
-54.503
-53.726
-52.91
-52.062
-51.191
-50.308
-49.42
-48.539
-47.674
-46.836
-46.035
-45.281
-44.577
-43.93
-43.346
-42.833
-42.406
-42.076
-41.848
-41.727
-41.718
-41.818
-42.023
-42.318
-42.672
-43.06
-43.457
-43.841
-44.201
-44.519
-44.766
-44.916
-44.931
-44.784
-44.461
-43.95
-43.23
-42.302
-41.189
-39.948
-38.671
-37.447
-36.336
-35.382
-34.63
-34.145
-34.003
-34.287
-35.053
-36.292
-38.022
-40.319
-43.18
-46.525
-50.119
-53.489
-56.232
-58.159
-58.96
-58.26
-55.939
-51.927
-46.565
-40.864
-35.414
-30.297
-26.124
-23.539
-22.367
-22.504
-22.057
-16.685
-4.864
13.336
37.186
62.6
89.131
120.282
159.49
212.089
281.174
365.097
455.932
541.392
606.106
631.45
609.979
541.385
430.423
298.313
163.237
42.921
-40.45
-83.05
-88.052
-65.115
-36.302
-13.655
-1.348
0.805
1.161
3.546
6.869
9.515
8.134
2.161
-6.234
-15.062
-22.235
-26.737
-28.636
-27.993
-25.147
-20.71
-15.328
-9.755
-4.695
-0.483
2.795
5.119
6.585
7.287
7.299
6.771
5.862
4.67
3.271
1.724
0.085
-1.536
-3.003
-4.218
-5.114
-5.657
-5.845
-5.669
-5.125
-4.23
-3.016
-1.515
0.237
2.214
4.393
6.737
9.2
11.73
14.266
16.768
19.206
21.562
23.828
26
28.077
30.072
32.001
33.876
35.708
37.504
39.269
41.013
42.749
44.489
46.247
48.036
49.867
51.75
53.698
55.718
57.818
60.006
62.287
64.668
67.158
69.765
72.497
75.363
78.37
81.527
84.838
88.31
91.946
95.747
99.714
103.847
108.143
112.598
117.21
121.97
126.874
131.913
137.077
142.357
147.741
153.217
158.771
164.387
170.052
175.747
181.454
187.156
192.834
198.467
204.035
209.517
214.892
220.139
225.235
230.16
234.893
239.413
243.699
247.734
251.499
254.979
258.157
261.021
263.558
265.757
267.61
269.109
270.248
271.024
271.433
271.476
271.153
270.469
269.428
268.036
266.303
264.24
261.858
259.172
256.198
252.952
249.454
245.725
241.785
237.658
233.368
228.939
224.397
219.766
215.073
210.344
205.604
200.877
196.188
191.561
187.02
182.584
178.276
174.115
170.118
166.303
162.684
159.276
156.088
153.132
150.415
147.943
145.721
143.75
142.031
140.562
139.339
138.357
137.607
137.081
136.767
136.652
136.723
136.963
137.356
137.885
138.531
139.276
140.099
140.981
141.902
142.843
143.785
144.706
145.591
146.419
147.173
147.838
148.398
148.837
149.144
149.305
149.31
149.149
148.816
148.303
147.606
146.721
145.647
144.383
142.931
141.294
139.475
137.481
135.317
132.993
130.516
127.897
125.146
122.275
119.295
116.219
113.059
109.827
106.536
103.197
99.824
96.427
93.019
89.61
86.211
82.832
79.48
76.165
72.892
69.668
66.496
63.38
60.323
57.325
54.388
51.512
48.694
45.933
43.226
40.569
37.956
35.382
32.839
30.322
27.821
25.329
22.838
20.34
17.826
15.29
12.722
10.116
7.465
4.761
1.998
-0.832
-3.732
-6.707
-9.761
-12.895
-16.11
-19.405
-22.776
-26.22
-29.734
-33.314
-36.954
-40.648
-44.391
-48.179
-52.006
-55.866
-59.75
-63.648
-67.546
-71.431
-75.292
-79.112
-82.876
-86.569
-90.177
-93.69
-97.101
-100.401
-103.577
-106.617
-109.504
-112.225
-114.779
-117.161
-119.369
-121.41
-123.295
-125.049
-126.709
-128.302
-129.843
-131.339
-132.787
-134.186
-135.538
-136.84
-138.089
-139.283
-140.411
-141.471
-142.469
-143.392
-144.214
-144.891
-145.351
-145.549
-145.475
-145.131
-144.545
-143.756
-142.806
-141.758
-140.694
-139.684
-138.797
-138.09
-137.601
-137.389
-137.529
-138.113
-139.262
-141.057
-143.533
-146.703
-150.543
-155.002
-160.021
-165.504
-171.316
-177.342
-183.473
-189.612
-195.685
-201.606
-207.275
-212.59
-217.449
-221.784
-225.57
-228.807
-231.513
-233.734
-235.548
-237.065
-238.438
-239.801
-241.256
-242.923
-244.959
-247.457
-250.435
-253.793
-257.23
-260.427
-263.152
-265.109
-265.908
-265.313
-263.3
-260.206
-256.952
-254.508
-253.513
-254.524
-258.093
-264.422
-273.22
-283.409
-292.636
-298.242
-298.126
-290.156
-272.025
-241.867
-198.477
-143.286
-81.225
-17.089
46.275
110.057
177.561
246.71
307.934
345.255
344.217
300.303
221.271
121.755
12.733
-97.525
-204.809
-303.37
-378.17
-419.466
-424.582
-399.191
-361.658
-325.783
-297.744
-278.847
-263.323
-248.337
-235.239
-225.749
-222.544
-225.55
-232.057
-239.594
-246.065
-250.366
-252.371
-252.004
-249.153
-244.328
-238.563
-232.807
-227.85
-224.073
-221.429
-219.879
-219.492
-220.126
-221.435
-223.1
-224.791
-226.308
-227.616
-228.65
-229.328
-229.606
-229.473
-228.933
-228.019
-226.75
-225.131
-223.186
-220.94
-218.425
-215.682
-212.748
-209.665
-206.481
-203.243
-199.99
-196.745
-193.529
-190.354
-187.23
-184.162
-181.146
-178.171
-175.224
-172.299
-169.39
-166.49
-163.589
-160.676
-157.739
-154.767
-151.754
-148.693
-145.578
-142.402
-139.162
-135.852
-132.472
-129.021
-125.497
-121.896
-118.213
-114.445
-110.589
-106.642
-102.603
-98.466
-94.232
-89.899
-85.466
-80.936
-76.308
-71.583
-66.765
-61.854
-56.854
-51.77
-46.606
-41.366
-36.057
-30.684
-25.254
-19.776
-14.256
-8.703
-3.126
2.467
8.066
13.659
19.237
24.789
30.303
35.768
41.171
46.501
51.745
56.89
61.926
66.839
71.618
76.251
80.726
85.032
89.16
93.099
96.839
100.372
103.69
106.786
109.652
112.284
114.676
116.825
118.726
120.377
121.777
122.925
123.82
124.465
124.861
125.012
124.921
124.594
124.038
123.258
122.264
121.063
119.667
118.085
116.328
114.409
112.341
110.137
107.81
105.376
102.848
100.24
97.569
94.848
92.092
89.315
86.532
83.756
81
78.279
75.605
72.99
70.447
67.986
65.618
63.353
61.2
59.168
57.263
55.493
53.862
52.377
51.04
49.855
48.823
47.945
47.22
46.648
46.226
45.951
45.817
45.82
45.953
46.211
46.585
47.067
47.648
48.319
49.071
49.894
50.775
51.706
52.674
53.667
54.675
55.685
56.685
57.663
58.607
59.506
60.347
61.12
61.813
62.415
62.916
63.306
63.576
63.717
63.722
63.584
63.296
62.855
62.255
61.493
60.568
59.479
58.224
56.805
55.224
53.482
51.584
49.534
47.336
44.998
42.525
39.926
37.209
34.384
31.459
28.446
25.356
22.199
18.989
15.738
12.458
9.163
5.865
2.578
-0.686
-3.913
-7.091
-10.208
-13.252
-16.211
-19.076
-21.837
-24.484
-27.01
-29.407
-31.668
-33.788
-35.761
-37.584
-39.253
-40.765
-42.12
-43.315
-44.352
-45.23
-45.952
-46.52
-46.937
-47.207
-47.334
-47.323
-47.181
-46.912
-46.523
-46.022
-45.414
-44.708
-43.91
-43.028
-42.07
-41.042
-39.951
-38.805
-37.609
-36.369
-35.092
-33.782
-32.444
-31.083
-29.703
-28.308
-26.901
-25.487
-24.069
-22.647
-21.227
-19.809
-18.396
-16.991
-15.595
-14.21
-12.837
-11.479
-10.139
-8.819
-7.52
-6.247
-5.002
-3.793
-2.622
-1.496
-0.419
0.603
1.564
2.458
3.281
4.027
4.694
5.274
5.761
6.149
6.431
6.601
6.654
6.582
6.38
6.044
5.576
4.974
4.239
3.366
2.343
1.164
-0.171
-1.663
-3.306
-5.094
-7.014
-9.041
-11.139
-13.27
-15.403
-17.511
-19.58
-21.585
-23.496
-25.276
-26.877
-28.272
-29.446
-30.377
-31.049
-31.468
-31.664
-31.703
-31.688
-31.694
-31.769
-31.965
-32.325
-32.917
-33.817
-35.095
-36.794
-38.956
-41.665
-44.935
-48.695
-52.743
-56.684
-60.098
-62.646
-63.935
-63.51
-61.2
-57.052
-51.425
-45.237
-39.226
-33.818
-29.743
-27.675
-27.604
-29.102
-30.889
-30.611
-26.466
-16.925
0.505
28.116
67.239
117.337
174.837
235.204
295.986
358.481
424.485
491.72
551.916
590.638
595.622
563.093
497.594
409.371
307.544
199.753
94.337
2.887
-60.976
-90.273
-88.144
-67.378
-43.309
-25.083
-13.873
-5.105
4.885
16.481
27.487
34.203
35.377
31.776
24.938
17.543
11.446
7.226
5.342
5.797
8.256
12.726
18.747
25.227
31.378
36.721
40.959
44.167
46.415
47.55
47.668
47.113
46.142
45.006
43.862
42.719
41.674
40.873
40.385
40.24
40.435
40.942
41.762
42.914
44.376
46.124
48.121
50.324
52.703
55.222
57.832
60.479
63.102
65.654
68.108
70.439
72.631
74.679
76.579
78.339
79.976
81.5
82.92
84.248
85.491
86.663
87.779
88.855
89.905
90.946
91.994
93.065
94.174
95.33
96.542
97.817
99.163
100.597
102.134
103.786
105.569
107.496
109.579
111.836
114.278
116.911
119.736
122.753
125.962
129.371
132.987
136.821
140.867
145.104
149.511
154.056
158.729
163.542
168.491
173.558
178.731
183.967
189.272
194.721
200.266
205.762
211.08
216.042
220.642
225.114
229.53
233.786
238.004
242.419
247.311
253.15
259.91
266.988
274.058
281.023
287.588
293.471
298.241
301.141
302.117
301.857
300.769
299.101
297.137
294.978
292.937
291.657
291.207
291.103
291.033
290.734
290.039
289.02
287.583
285.435
282.55
279.124
275.308
271.269
267.085
262.688
258.087
253.357
248.525
243.601
238.589
233.47
228.263
223.022
217.785
212.588
207.455
202.395
197.421
192.552
187.803
183.191
178.728
174.425
170.29
166.33
162.551
158.959
155.554
152.337
149.305
146.453
143.778
141.279
138.953
136.795
134.798
132.952
131.248
129.677
128.227
126.887
125.645
124.488
123.403
122.378
121.4
120.459
119.541
118.636
117.73
116.814
115.878
114.912
113.908
112.857
111.754
110.59
109.362
108.064
106.693
105.245
103.718
102.11
100.421
98.651
96.799
94.868
92.859
90.775
88.62
86.398
84.114
81.772
79.378
76.938
74.458
71.943
69.4
66.834
64.251
61.657
59.057
56.456
53.859
51.271
48.696
46.137
43.599
41.084
38.595
36.135
33.706
31.31
28.951
26.628
24.345
22.103
19.902
17.743
15.626
13.552
11.519
9.525
7.571
5.654
3.772
1.923
0.106
-1.682
-3.442
-5.175
-6.884
-8.57
-10.236
-11.882
-13.51
-15.121
-16.716
-18.297
-19.864
-21.417
-22.957
-24.484
-26
-27.506
-29.004
-30.494
-31.978
-33.458
-34.934
-36.409
-37.881
-39.352
-40.82
-42.286
-43.747
-45.204
-46.654
-48.094
-49.525
-50.946
-52.357
-53.758
-55.149
-56.53
-57.901
-59.264
-60.617
-61.958
-63.283
-64.59
-65.877
-67.144
-68.39
-69.616
-70.819
-72.001
-73.165
-74.313
-75.444
-76.554
-77.633
-78.679
-79.7
-80.705
-81.715
-82.744
-83.805
-84.916
-86.101
-87.372
-88.74
-90.196
-91.716
-93.29
-94.917
-96.608
-98.389
-100.269
-102.239
-104.29
-106.403
-108.555
-110.733
-112.905
-115.018
-117.054
-119.019
-120.943
-122.904
-124.946
-127.088
-129.339
-131.679
-134.09
-136.583
-139.156
-141.81
-144.564
-147.429
-150.441
-153.667
-157.117
-160.771
-164.58
-168.438
-172.274
-176.06
-179.769
-183.416
-187.057
-190.727
-194.469
-198.338
-202.328
-206.445
-210.701
-215.073
-219.576
-224.256
-229.137
-234.291
-239.831
-245.769
-252.022
-258.385
-264.458
-269.839
-274.24
-277.396
-278.96
-278.695
-276.605
-272.994
-268.58
-264.169
-260.279
-257.126
-255.073
-254.668
-255.8
-257.588
-258.793
-256.395
-247.614
-232.375
-208.991
-177.964
-142.783
-102.233
-56.572
-5.173
58.718
136.451
223.052
308.848
375.103
403.749
387.634
328.331
234.928
120.364
-5.301
-133.498
-252.16
-346.746
-405.744
-423.554
-405.624
-366.727
-322.666
-287.205
-266.81
-262.091
-269.253
-280.489
-290.97
-297.11
-298.304
-298.582
-299.596
-301.794
-304.841
-306.2
-304.887
-301.428
-296.426
-290.936
-285.794
-281.33
-277.736
-275.143
-273.51
-272.65
-272.431
-272.739
-273.425
-274.391
-275.551
-276.794
-278.045
-279.235
-280.258
-281.039
-281.534
-281.716
-281.593
-281.18
-280.489
-279.555
-278.418
-277.109
-275.654
-274.06
-272.332
-270.495
-268.58
-266.632
-264.698
-262.815
-261.003
-259.275
-257.645
-256.136
-254.768
-253.556
-252.514
-251.661
-251.029
-250.666
-250.611
-250.885
-251.491
-252.419
-253.649
-255.149
-256.877
-258.783
-260.787
-262.797
-264.705
-266.394
-267.751
-268.677
-269.064
-268.802
-267.804
-265.994
-263.311
-259.719
-255.179
-249.679
-243.221
-235.817
-227.527
-218.434
-208.636
-198.268
-187.451
-176.277
-164.84
-153.217
-141.46
-129.638
-117.814
-106.043
-94.404
-82.975
-71.831
-61.066
-50.735
-40.864
-31.468
-22.521
-14.009
-5.96
1.598
8.612
14.999
20.712
25.713
29.962
33.464
36.244
38.345
39.858
40.848
41.356
41.414
41.026
40.199
38.975
37.399
35.53
33.454
31.237
28.935
26.613
24.298
21.998
19.7
17.355
14.923
12.39
9.749
7.01
4.191
1.297
-1.666
-4.686
-7.768
-10.914
-14.121
-17.396
-20.729
-24.097
-27.473
-30.811
-34.067
-37.213
-40.227
-43.094
-45.806
-48.357
-50.746
-52.981
-55.067
-57.007
-58.802
-60.454
-61.967
-63.349
-64.611
-65.769
-66.837
-67.83
-68.761
-69.644
-70.492
-71.315
-72.124
-72.927
-73.731
-74.547
-75.385
-76.259
-77.181
-78.164
-79.219
-80.361
-81.602
-82.954
-84.426
-86.03
-87.772
-89.662
-91.705
-93.906
-96.272
-98.806
-101.512
-104.391
-107.446
-110.676
-114.082
-117.663
-121.414
-125.334
-129.418
-133.66
-138.055
-142.598
-147.282
-152.101
-157.046
-162.109
-167.282
-172.554
-177.915
-183.351
-188.85
-194.398
-199.981
-205.584
-211.195
-216.797
-222.379
-227.925
-233.423
-238.86
-244.222
-249.496
-254.669
-259.728
-264.663
-269.462
-274.113
-278.607
-282.935
-287.092
-291.071
-294.866
-298.471
-301.882
-305.097
-308.111
-310.92
-313.518
-315.902
-318.07
-320.022
-321.762
-323.292
-324.619
-325.747
-326.688
-327.453
-328.052
-328.494
-328.78
-328.912
-328.896
-328.75
-328.498
-328.158
-327.75
-327.292
-326.809
-326.328
-325.873
-325.451
-325.055
-324.675
-324.311
-323.974
-323.689
-323.484
-323.371
-323.351
-323.413
-323.551
-323.758
-324.015
-324.277
-324.49
-324.611
-324.629
-324.575
-324.48
-324.355
-324.203
-324.001
-323.734
-323.408
-323.03
-322.615
-322.18
-321.75
-321.368
-321.131
-321.137
-321.464
-322.152
-323.169
-324.473
-326.036
-327.822
-329.806
-331.946
-334.168
-336.396
-338.557
-340.549
-342.262
-343.562
-344.247
-344.125
-343.032
-340.828
-337.459
-332.901
-327.119
-320.104
-311.85
-302.361
-291.686
-279.882
-266.998
-253.124
-238.355
-222.8
-206.63
-190.001
-173.029
-155.827
-138.427
-120.819
-103.019
-85.036
-66.884
-48.599
-30.192
-11.665
6.952
25.649
44.407
63.188
81.991
100.796
119.528
138.089
156.32
174.002
190.966
207.069
222.185
236.241
249.169
260.913
271.456
280.792
288.929
295.894
301.71
306.407
310.085
312.879
314.976
316.611
317.969
319.192
320.404
321.675
323.033
324.461
325.907
327.297
328.591
329.772
330.815
331.685
332.294
332.529
332.257
331.358
329.731
327.24
323.866
319.727
315.107
310.529
306.505
303.386
301.539
301.376
302.989
306.246
310.719
315.401
319.508
322.705
324.467
324.333
322.54
319.698
317.089
317.011
321.228
331.061
348.527
375.56
413.429
461.391
515.79
572.213
626.651
680.02
737.785
800.346
865.171
921.42
947.101
930.008
864.568
753.077
618.137
480.125
357.564
270.964
222.262
206.791
215.298
228.99
238.728
242.084
239.84
238.913
241.28
244.843
247.574
246.249
240.316
231.687
221.913
212.717
205.482
200.562
198.11
198.061
199.875
202.926
206.622
210.341
213.566
216.084
217.855
218.937
219.51
219.728
219.708
219.59
219.499
219.512
219.659
219.951
220.37
220.917
221.637
222.537
223.586
224.722
225.822
226.776
227.496
227.897
227.91
227.492
226.602
225.222
223.377
221.104
218.465
215.545
212.387
209.041
205.575
202.066
198.627
195.364
192.352
189.655
187.328
185.404
183.918
182.891
182.301
182.116
182.286
182.74
183.44
184.359
185.462
186.723
188.104
189.571
191.111
192.723
194.403
196.152
197.967
199.846
201.809
203.882
206.093
208.477
211.054
213.836
216.832
220.048
223.484
227.138
231.001
235.054
239.283
243.674
248.217
252.899
257.705
262.613
267.606
272.661
277.762
282.889
288.026
293.154
298.257
303.322
308.334
313.28
318.148
322.92
327.583
332.12
336.515
340.753
344.819
348.697
352.374
355.836
359.072
362.07
364.821
367.314
369.54
371.491
373.159
374.537
375.618
376.397
376.869
377.031
376.88
376.414
375.632
374.534
373.12
371.393
369.355
367.009
364.36
361.413
358.176
354.656
350.863
346.808
342.501
337.956
333.187
328.208
323.034
317.681
312.165
306.505
300.716
294.818
288.828
282.767
276.653
270.506
264.347
258.194
252.069
245.989
239.974
234.044
228.216
222.51
216.942
211.529
206.29
201.239
196.391
191.76
187.359
183.2
179.291
175.642
172.26
169.15
166.316
163.761
161.486
159.491
157.777
156.34
155.176
154.28
153.646
153.266
153.131
153.231
153.554
154.087
154.819
155.734
156.818
158.056
159.431
160.926
162.523
164.203
165.947
167.734
169.545
171.358
173.155
174.914
176.616
178.24
179.77
181.19
182.483
183.634
184.627
185.45
186.09
186.535
186.773
186.791
186.576
186.119
185.411
184.448
183.225
181.737
179.98
177.955
175.667
173.119
170.312
167.244
163.912
160.322
156.492
152.447
148.207
143.792
139.223
134.528
129.74
124.883
119.972
115.004
109.975
104.892
99.776
94.659
89.574
84.537
79.55
74.609
69.722
64.896
60.131
55.409
50.702
46.004
41.35
36.805
32.436
28.282
24.363
20.682
17.25
14.089
11.231
8.699
6.502
4.651
3.174
2.123
1.56
1.506
1.93
2.756
3.911
5.35
7.042
8.965
11.081
13.345
15.718
18.175
20.703
23.273
25.84
28.33
30.668
32.811
34.756
36.534
38.167
39.662
41.018
42.236
43.33
44.311
45.179
45.92
46.516
46.964
47.274
47.473
47.586
47.626
47.588
47.456
47.22
46.874
46.418
45.847
45.152
44.327
43.381
42.328
41.187
39.971
38.687
37.339
35.929
34.467
32.962
31.425
29.861
28.276
26.674
25.061
23.452
21.853
20.266
18.689
17.111
15.526
13.936
12.343
10.743
9.138
7.531
5.938
4.394
2.931
1.578
0.356
-0.727
-1.652
-2.395
-2.932
-3.237
-3.304
-3.148
-2.777
-2.191
-1.41
-0.471
0.546
1.506
2.293
2.807
2.962
2.704
1.953
0.607
-1.401
-4.11
-7.508
-11.534
-16.196
-21.556
-27.552
-33.994
-40.554
-46.775
-52.321
-56.883
-59.993
-61.196
-60.228
-57.164
-52.438
-46.538
-39.966
-33.553
-28.314
-25.041
-22.914
-19.288
-11.818
0.401
14.528
26.129
35.112
44.967
63.898
101.772
160.798
239.843
335.026
434.402
527.472
600.442
632.331
614.296
543.263
422.888
276.774
125.415
-10.729
-107.669
-161.506
-174.817
-156.863
-129.398
-102.8
-80.493
-62.74
-41.645
-15.392
12.447
38.724
58.314
68.622
70.737
66.354
57.823
47.824
38.314
30.396
24.891
22.508
23.37
27.2
33.414
40.819
48.198
54.958
60.743
65.279
68.564
70.629
71.598
71.918
72.104
72.459
73.169
74.313
75.865
77.845
80.283
83.137
86.343
89.847
93.606
97.614
101.887
106.414
111.167
116.097
121.146
126.254
131.381
136.496
141.576
146.598
151.542
156.39
161.135
165.779
170.319
174.749
179.06
183.243
187.296
191.225
195.039
198.743
202.343
205.84
209.238
212.538
215.747
218.867
221.9
224.846
227.709
230.496
233.214
235.872
238.479
241.041
243.567
246.067
248.55
251.024
253.497
255.976
258.469
260.983
263.525
266.102
268.719
271.382
274.094
276.86
279.68
282.557
285.489
288.476
291.515
294.602
297.732
300.9
304.098
307.32
310.557
313.799
317.035
320.254
323.445
326.593
329.688
332.714
335.657
338.503
341.238
343.847
346.316
348.63
350.776
352.737
354.502
356.059
357.394
358.498
359.356
359.956
360.288
360.341
360.107
359.579
358.748
357.608
356.156
354.39
352.313
349.922
347.219
344.199
340.86
337.204
333.238
328.973
324.417
319.58
314.469
309.095
303.471
297.607
291.511
285.185
278.628
271.844
264.844
257.645
250.271
242.734
235.034
227.153
219.072
210.786
202.316
193.691
184.931
176.042
167.012
157.869
148.7
139.536
130.309
120.843
110.946
100.575
89.913
79.186
68.474
57.882
47.662
38.309
30.428
24.272
19.536
15.64
12.212
8.989
5.631
1.54
-4.097
-11.686
-20.894
-30.924
-41.155
-51.207
-60.774
-69.433
-76.519
-81.621
-84.908
-86.964
-88.298
-89.184
-89.75
-90.096
-90.49
-91.152
-92.055
-92.974
-93.693
-94.11
-94.239
-94.154
-93.872
-93.373
-92.677
-91.843
-90.939
-90.016
-89.094
-88.165
-87.229
-86.309
-85.435
-84.645
-83.973
-83.447
-83.093
-82.936
-83.003
-83.321
-83.915
-84.809
-86.023
-87.577
-89.49
-91.78
-94.464
-97.553
-101.055
-104.97
-109.3
-114.043
-119.199
-124.762
-130.728
-137.087
-143.829
-150.941
-158.408
-166.213
-174.335
-182.753
-191.443
-200.378
-209.532
-218.879
-228.389
-238.034
-247.786
-257.614
-267.49
-277.386
-287.274
-297.125
-306.913
-316.608
-326.186
-335.621
-344.89
-353.974
-362.852
-371.503
-379.911
-388.063
-395.945
-403.544
-410.843
-417.822
-424.471
-430.788
-436.778
-442.45
-447.82
-452.908
-457.743
-462.367
-466.817
-471.128
-475.324
-479.416
-483.427
-487.387
-491.33
-495.301
-499.328
-503.417
-507.574
-511.801
-516.081
-520.384
-524.652
-528.795
-532.752
-536.489
-539.998
-543.303
-546.413
-549.329
-552.056
-554.596
-556.97
-559.219
-561.375
-563.466
-565.557
-567.741
-570.152
-572.967
-576.312
-580.253
-584.823
-590.013
-595.825
-602.275
-609.352
-617.037
-625.302
-634.105
-643.436
-653.31
-663.692
-674.526
-685.718
-697.114
-708.648
-720.36
-732.224
-744.159
-755.992
-767.397
-778.117
-788.036
-796.922
-804.467
-810.579
-815.339
-819.197
-823.024
-827.397
-832.521
-838.582
-845.617
-853.214
-860.547
-866.011
-867.314
-862.674
-850.853
-830.767
-801.63
-763.143
-715.734
-660.995
-601.451
-539.418
-476.961
-416.217
-359.384
-308.498
-264.879
