Name
Date of Birth,"Jan 30, 1994"
Recorded Date,2024-10-01 11:36:13 -0700
Classification,Sinus Rhythm
Symptoms,
Software Version,1.90
Device,"Watch6,3"
Sample Rate,512 hertz


Lead,Lead I
Unit,µV

132.456
231.898
323.547
381.328
389.308
351.213
277.813
183.195
84.109
-11.361
-95.311
-157.978
-198.973
-217.98
-218.261
-209.609
-193.638
-172.898
-151.835
-130.49
-114.806
-107.544
-104.711
-104.568
-103.203
-99.251
-96.687
-97.057
-100.54
-106.33
-111.843
-115.938
-118.688
-120.006
-119.889
-118.435
-115.976
-113.169
-110.544
-108.266
-106.255
-104.439
-102.937
-101.823
-100.964
-100.083
-98.92
-97.349
-95.386
-93.096
-90.477
-87.509
-84.205
-80.612
-76.802
-72.833
-68.73
-64.503
-60.173
-55.774
-51.354
-46.958
-42.617
-38.353
-34.182
-30.113
-26.16
-22.33
-18.628
-15.06
-11.629
-8.339
-5.195
-2.201
0.641
3.332
5.879
8.29
10.572
12.731
14.77
16.695
18.51
20.221
21.833
23.352
24.786
26.143
27.433
28.669
29.861
31.02
32.158
33.285
34.411
35.546
36.7
37.882
39.101
40.366
41.685
43.066
44.515
46.038
47.641
49.327
51.099
52.96
54.911
56.949
59.075
61.285
63.575
65.941
68.376
70.874
73.425
76.02
78.65
81.302
83.964
86.624
89.267
91.88
94.448
96.956
99.388
101.73
103.965
106.08
108.057
109.883
111.544
113.025
114.313
115.396
116.261
116.898
117.297
117.447
117.343
116.975
116.34
115.432
114.249
112.789
111.052
109.039
106.753
104.199
101.382
98.309
94.988
91.429
87.643
83.642
79.439
75.048
70.484
65.764
60.904
55.922
50.836
45.663
40.423
35.134
29.815
24.486
19.163
13.868
8.617
3.43
-1.677
-6.686
-11.58
-16.345
-20.965
-25.426
-29.717
-33.825
-37.739
-41.451
-44.953
-48.236
-51.297
-54.13
-56.732
-59.102
-61.24
-63.145
-64.821
-66.269
-67.495
-68.503
-69.299
-69.89
-70.283
-70.486
-70.508
-70.359
-70.048
-69.586
-68.985
-68.254
-67.406
-66.453
-65.406
-64.276
-63.077
-61.818
-60.512
-59.169
-57.799
-56.414
-55.022
-53.633
-52.254
-50.894
-49.559
-48.255
-46.988
-45.762
-44.582
-43.449
-42.367
-41.338
-40.364
-39.445
-38.582
-37.776
-37.025
-36.33
-35.688
-35.099
-34.561
-34.072
-33.628
-33.229
-32.871
-32.55
-32.265
-32.012
-31.788
-31.589
-31.413
-31.257
-31.118
-30.994
-30.883
-30.783
-30.693
-30.612
-30.54
-30.477
-30.423
-30.379
-30.347
-30.326
-30.318
-30.326
-30.349
-30.39
-30.451
-30.532
-30.635
-30.763
-30.915
-31.095
-31.303
-31.541
-31.809
-32.11
-32.445
-32.814
-33.22
-33.663
-34.146
-34.668
-35.232
-35.837
-36.484
-37.172
-37.903
-38.675
-39.487
-40.337
-41.225
-42.149
-43.107
-44.096
-45.114
-46.16
-47.23
-48.323
-49.436
-50.567
-51.715
-52.877
-54.051
-55.237
-56.432
-57.636
-58.846
-60.062
-61.281
-62.502
-63.722
-64.94
-66.153
-67.36
-68.556
-69.741
-70.91
-72.063
-73.195
-74.305
-75.39
-76.448
-77.475
-78.469
-79.428
-80.348
-81.229
-82.068
-82.861
-83.606
-84.301
-84.942
-85.527
-86.05
-86.509
-86.899
-87.216
-87.456
-87.614
-87.688
-87.672
-87.563
-87.359
-87.057
-86.654
-86.149
-85.539
-84.824
-84.003
-83.076
-82.044
-80.909
-79.67
-78.331
-76.894
-75.363
-73.741
-72.032
-70.239
-68.368
-66.423
-64.411
-62.338
-60.212
-58.039
-55.83
-53.595
-51.346
-49.096
-46.856
-44.638
-42.457
-40.324
-38.253
-36.253
-34.333
-32.502
-30.771
-29.151
-27.65
-26.278
-25.042
-23.949
-23.008
-22.225
-21.602
-21.137
-20.829
-20.678
-20.686
-20.864
-21.217
-21.745
-22.446
-23.318
-24.351
-25.53
-26.831
-28.213
-29.638
-31.072
-32.485
-33.855
-35.152
-36.342
-37.388
-38.254
-38.909
-39.333
-39.496
-39.385
-39.019
-38.432
-37.688
-36.868
-36.029
-35.233
-34.549
-34.027
-33.719
-33.68
-33.936
-34.553
-35.626
-37.169
-39.169
-41.542
-44.046
-46.387
-48.254
-49.206
-48.794
-46.833
-43.226
-38.029
-31.786
-25.252
-19.241
-14.812
-12.132
-10.026
-7.52
-4.308
-1.863
-2.671
-6.509
-8.594
0.062
27.421
76.112
142.024
216.248
292.588
368.146
441.329
508.353
559.861
585.599
577.35
534.993
464.096
370.099
263.924
154.63
53.158
-22.449
-64.79
-71.526
-45.761
-4.951
38.793
75.895
95.313
98.46
87.972
67.854
49.022
35.847
29.349
29.345
30.563
30.655
30.018
28.954
29.288
31.624
35.044
38.917
42.576
45.573
47.966
49.812
51.11
51.956
52.439
52.618
52.57
52.367
52.05
51.664
51.27
50.926
50.729
50.762
51.078
51.711
52.661
53.926
55.506
57.386
59.538
61.928
64.522
67.29
70.209
73.246
76.36
79.501
82.613
85.653
88.592
91.407
94.085
96.618
98.998
101.23
103.325
105.293
107.139
108.87
110.489
112.003
113.425
114.768
116.047
117.275
118.463
119.625
120.774
121.922
123.08
124.258
125.464
126.708
128.004
129.362
130.795
132.314
133.932
135.657
137.503
139.477
141.587
143.84
146.242
148.796
151.507
154.378
157.408
160.598
163.947
167.452
171.111
174.917
178.865
182.946
187.153
191.476
195.903
200.424
205.024
209.691
214.409
219.163
223.938
228.716
233.48
238.211
242.891
247.502
252.024
256.44
260.73
264.875
268.857
272.658
276.262
279.65
282.807
285.717
288.366
290.74
292.826
294.612
296.087
297.243
298.071
298.564
298.718
298.529
297.994
297.112
295.885
294.314
292.404
290.16
287.589
284.7
281.502
278.008
274.231
270.184
265.884
261.347
256.591
251.635
246.498
241.202
235.768
230.218
224.573
218.858
213.094
207.306
201.516
195.748
190.023
184.363
178.791
173.326
167.989
162.798
157.771
152.925
148.275
143.835
139.617
135.633
131.892
128.402
125.17
122.2
119.496
117.059
114.89
112.987
111.347
109.967
108.839
107.958
107.314
106.898
106.699
106.705
106.903
107.28
107.821
108.511
109.335
110.276
111.32
112.451
113.651
114.906
116.201
117.52
118.848
120.171
121.477
122.752
123.984
125.162
126.276
127.317
128.276
129.146
129.92
130.593
131.159
131.616
131.961
132.193
132.31
132.314
132.205
131.987
131.662
131.235
130.71
130.092
129.388
128.603
127.745
126.819
125.835
124.797
123.715
122.596
121.446
120.274
119.086
117.889
116.689
115.494
114.309
113.14
111.992
110.869
109.777
108.72
107.701
106.724
105.791
104.905
104.068
103.28
102.541
101.853
101.214
100.624
100.08
99.581
99.126
98.71
98.333
97.991
97.68
97.399
97.143
96.91
96.696
96.498
96.313
96.138
95.97
95.806
95.644
95.481
95.314
95.142
94.962
94.771
94.567
94.349
94.115
93.862
93.59
93.298
92.985
92.65
92.294
91.916
91.517
91.097
90.657
90.198
89.719
89.223
88.709
88.179
87.633
87.072
86.496
85.907
85.305
84.69
84.062
83.42
82.766
82.099
81.418
80.725
80.018
79.299
78.566
77.821
77.064
76.294
75.512
74.718
73.911
73.092
72.259
71.413
70.553
69.678
68.788
67.883
66.962
66.024
65.069
64.098
63.109
62.103
61.081
60.042
58.988
57.919
56.836
55.74
54.633
53.516
52.391
51.258
50.12
48.977
47.831
46.682
45.531
44.38
43.229
42.079
40.931
39.786
38.646
37.511
36.383
35.263
34.152
33.052
31.964
30.889
29.829
28.786
27.76
26.752
25.764
24.798
23.853
22.932
22.034
21.16
20.312
19.491
18.696
17.93
17.192
16.485
15.809
15.166
14.558
13.986
13.453
12.959
12.507
12.099
11.735
11.418
11.147
10.925
10.751
10.627
10.553
10.527
10.549
10.619
10.735
10.896
11.1
11.343
11.622
11.936
12.279
12.647
13.033
13.432
13.837
14.24
14.633
15.01
15.361
15.679
15.956
16.186
16.363
16.478
16.522
16.486
16.363
16.146
15.827
15.402
14.862
14.205
13.432
12.544
11.541
10.418
9.165
7.775
6.248
4.584
2.79
0.875
-1.15
-3.267
-5.442
-7.645
-9.849
-12.029
-14.176
-16.271
-18.285
-20.185
-21.926
-23.471
-24.805
-25.904
-26.751
-27.354
-27.728
-27.919
-28.004
-28.027
-28.033
-28.077
-28.196
-28.446
-28.908
-29.616
-30.631
-32.058
-33.913
-36.152
-38.668
-41.154
-43.271
-44.808
-45.488
-44.944
-43.021
-39.766
-35.45
-30.86
-26.866
-23.85
-22.036
-21.986
-23.976
-27.557
-32.065
-35.094
-32.754
-23.658
-7.529
15.337
41.055
68.815
102.011
143.113
197.815
269.294
352.086
437.21
511.354
559.984
574.418
552.9
498.872
419.278
323.346
219.64
117.272
28.462
-36.007
-71.345
-78.189
-65.811
-49.311
-37.204
-33.975
-39.558
-45.874
-49.78
-50.8
-47.78
-45.171
-45.137
-46.969
-51.24
-55.956
-59.086
-60.592
-60.296
-58.487
-55.952
-53.031
-49.944
-47.133
-44.989
-43.694
-43.341
-43.898
-45.195
-47.102
-49.517
-52.291
-55.278
-58.36
-61.422
-64.348
-67.039
-69.412
-71.406
-72.988
-74.143
-74.863
-75.148
-75.024
-74.527
-73.698
-72.583
-71.217
-69.634
-67.881
-66.009
-64.076
-62.139
-60.243
-58.414
-56.676
-55.045
-53.531
-52.139
-50.865
-49.697
-48.626
-47.65
-46.763
-45.965
-45.249
-44.605
-44.023
-43.492
-43.003
-42.548
-42.116
-41.698
-41.285
-40.87
-40.446
-40.007
-39.544
-39.047
-38.505
-37.908
-37.243
-36.501
-35.669
-34.737
-33.694
-32.531
-31.239
-29.811
-28.239
-26.518
-24.641
-22.603
-20.402
-18.034
-15.497
-12.791
-9.915
-6.872
-3.665
-0.298
3.222
6.888
10.692
14.624
18.672
22.824
27.068
31.389
35.771
40.2
44.658
49.127
53.589
58.027
62.42
66.748
70.994
75.136
79.157
83.036
86.756
90.297
93.641
96.772
99.672
102.325
104.716
106.83
108.655
110.178
111.39
112.281
112.843
113.072
112.964
112.515
111.726
110.596
109.13
107.331
105.205
102.759
100.003
96.946
93.601
89.98
86.099
81.972
77.616
73.049
68.288
63.354
58.265
53.042
47.706
42.278
36.78
31.233
25.658
20.077
14.511
8.981
3.506
-1.894
-7.202
-12.399
-17.471
-22.402
-27.179
-31.788
-36.22
-40.463
-44.511
-48.354
-51.988
-55.409
-58.612
-61.596
-64.36
-66.904
-69.231
-71.341
-73.239
-74.929
-76.416
-77.708
-78.81
-79.731
-80.48
-81.065
-81.496
-81.784
-81.938
-81.969
-81.887
-81.704
-81.429
-81.072
-80.644
-80.154
-79.611
-79.023
-78.399
-77.745
-77.07
-76.379
-75.678
-74.972
-74.268
-73.568
-72.877
-72.198
-71.534
-70.889
-70.263
-69.659
-69.079
-68.523
-67.992
-67.486
-67.006
-66.551
-66.121
-65.715
-65.333
-64.975
-64.638
-64.324
-64.03
-63.756
-63.502
-63.268
-63.054
-62.86
-62.687
-62.535
-62.405
-62.299
-62.217
-62.162
-62.134
-62.134
-62.165
-62.227
-62.322
-62.452
-62.618
-62.821
-63.062
-63.343
-63.663
-64.025
-64.428
-64.873
-65.36
-65.888
-66.458
-67.068
-67.719
-68.409
-69.136
-69.9
-70.696
-71.524
-72.38
-73.261
-74.163
-75.082
-76.014
-76.954
-77.898
-78.842
-79.779
-80.706
-81.617
-82.508
-83.373
-84.208
-85.007
-85.766
-86.48
-87.146
-87.759
-88.316
-88.813
-89.247
-89.615
-89.914
-90.142
-90.297
-90.376
-90.38
-90.306
-90.154
-89.924
-89.615
-89.23
-88.769
-88.234
-87.626
-86.949
-86.204
-85.394
-84.523
-83.595
-82.612
-81.58
-80.501
-79.382
-78.225
-77.036
-75.819
-74.579
-73.32
-72.047
-70.764
-69.476
-68.188
-66.902
-65.625
-64.36
-63.112
-61.885
-60.683
-59.51
-58.37
-57.266
-56.202
-55.181
-54.205
-53.277
-52.401
-51.577
-50.809
-50.097
-49.444
-48.85
-48.318
-47.847
-47.437
-47.09
-46.805
-46.582
-46.42
-46.319
-46.278
-46.297
-46.373
-46.506
-46.694
-46.935
-47.225
-47.563
-47.946
-48.37
-48.83
-49.324
-49.847
-50.394
-50.962
-51.547
-52.142
-52.744
-53.348
-53.947
-54.537
-55.113
-55.669
-56.2
-56.7
-57.164
-57.587
-57.966
-58.293
-58.566
-58.78
-58.931
-59.016
-59.03
-58.971
-58.836
-58.624
-58.334
-57.964
-57.516
-56.992
-56.394
-55.727
-54.995
-54.203
-53.357
-52.463
-51.527
-50.555
-49.552
-48.523
-47.476
-46.417
-45.356
-44.304
-43.268
-42.257
-41.282
-40.35
-39.473
-38.658
-37.908
-37.228
-36.625
-36.109
-35.699
-35.409
-35.245
-35.212
-35.312
-35.54
-35.891
-36.351
-36.889
-37.477
-38.089
-38.704
-39.313
-39.905
-40.455
-40.932
-41.297
-41.519
-41.591
-41.507
-41.256
-40.852
-40.322
-39.722
-39.145
-38.668
-38.357
-38.274
-38.474
-39.022
-39.985
-41.41
-43.341
-45.834
-48.885
-52.444
-56.39
-60.479
-64.479
-68.213
-71.458
-73.926
-75.385
-75.76
-75.227
-74.247
-73.194
-72.056
-70.829
-69.824
-69.431
-69.902
-70.003
-66.928
-58.611
-43.921
-25.23
-7.959
6.438
18.504
33.123
61.593
108.432
174.047
256.326
342.082
419.985
481.773
514.705
513.26
476.607
403.424
302.74
189.566
77.979
-13.921
-73.408
-100.06
-98.87
-82.298
-64.919
-53.151
-48.53
-48.398
-47.855
-45.912
-43.84
-43.41
-46.585
-53.09
-61.322
-69.75
-76.723
-81.461
-83.943
-84.219
-82.651
-79.779
-76.119
-72.26
-68.771
-65.933
-63.829
-62.474
-61.774
-61.634
-61.987
-62.707
-63.667
-64.786
-66
-67.258
-68.513
-69.676
-70.638
-71.321
-71.676
-71.679
-71.334
-70.639
-69.596
-68.228
-66.567
-64.651
-62.515
-60.189
-57.699
-55.084
-52.389
-49.665
-46.967
-44.337
-41.804
-39.388
-37.101
-34.952
-32.945
-31.075
-29.331
-27.708
-26.198
-24.797
-23.505
-22.313
-21.211
-20.189
-19.234
-18.335
-17.481
-16.661
-15.863
-15.076
-14.291
-13.498
-12.687
-11.848
-10.97
-10.039
-9.043
-7.968
-6.803
-5.536
-4.155
-2.65
-1.01
0.771
2.702
4.788
7.036
9.448
12.028
14.779
17.7
20.792
24.054
27.481
31.071
34.817
38.713
42.751
46.922
51.215
55.619
60.12
64.705
69.358
74.065
78.806
83.566
88.325
93.064
97.765
102.408
106.973
111.442
115.795
120.012
124.076
127.969
131.672
135.17
138.446
141.484
144.272
146.796
149.042
151.002
152.665
154.022
155.066
155.792
156.196
156.274
156.026
155.451
154.553
153.334
151.8
149.958
147.816
145.385
142.675
139.699
136.47
133.004
129.314
125.419
121.334
117.078
112.67
108.128
103.471
98.719
93.891
89.007
84.087
79.149
74.212
69.295
64.415
59.59
54.837
50.172
45.61
41.166
36.853
32.683
28.667
24.816
21.137
17.639
14.326
11.205
8.279
5.55
3.021
0.692
-1.438
-3.37
-5.106
-6.65
-8.006
-9.18
-10.176
-11.003
-11.666
-12.174
-12.534
-12.755
-12.844
-12.812
-12.668
-12.42
-12.079
-11.654
-11.155
-10.592
-9.975
-9.312
-8.613
-7.886
-7.139
-6.381
-5.619
-4.861
-4.112
-3.38
-2.67
-1.989
-1.342
-0.733
-0.167
0.352
0.82
1.236
1.595
1.895
2.135
2.313
2.427
2.476
2.458
2.375
2.225
2.008
1.725
1.377
0.965
0.491
-0.046
-0.643
-1.298
-2.01
-2.778
-3.6
-4.474
-5.398
-6.371
-7.39
-8.452
-9.557
-10.701
-11.882
-13.099
-14.349
-15.63
-16.939
-18.274
-19.634
-21.014
-22.413
-23.827
-25.255
-26.693
-28.139
-29.59
-31.043
-32.496
-33.947
-35.393
-36.832
-38.261
-39.676
-41.076
-42.457
-43.816
-45.15
-46.456
-47.73
-48.969
-50.171
-51.33
-52.445
-53.512
-54.526
-55.486
-56.386
-57.226
-58
-58.707
-59.344
-59.909
-60.399
-60.814
-61.151
-61.409
-61.587
-61.684
-61.699
-61.633
-61.484
-61.253
-60.942
-60.55
-60.08
-59.533
-58.913
-58.221
-57.463
-56.641
-55.76
-54.825
-53.842
-52.816
-51.754
-50.662
-49.548
-48.418
-47.279
-46.141
-45.008
-43.889
-42.79
-41.719
-40.682
-39.686
-38.736
-37.838
-36.999
-36.224
-35.516
-34.88
-34.321
-33.84
-33.441
-33.125
-32.893
-32.745
-32.681
-32.699
-32.798
-32.974
-33.223
-33.541
-33.922
-34.359
-34.846
-35.374
-35.936
-36.522
-37.123
-37.73
-38.334
-38.925
-39.494
-40.031
-40.527
-40.973
-41.36
-41.681
-41.928
-42.094
-42.174
-42.162
-42.055
-41.848
-41.54
-41.131
-40.619
-40.009
-39.301
-38.502
-37.616
-36.65
-35.612
-34.51
-33.354
-32.153
-30.918
-29.66
-28.391
-27.127
-25.881
-24.668
-23.501
-22.394
-21.361
-20.417
-19.57
-18.828
-18.202
-17.701
-17.343
-17.141
-17.105
-17.24
-17.55
-18.034
-18.691
-19.507
-20.463
-21.535
-22.703
-23.952
-25.274
-26.661
-28.095
-29.55
-30.988
-32.373
-33.686
-34.913
-36.034
-37.039
-37.936
-38.754
-39.56
-40.412
-41.335
-42.342
-43.439
-44.647
-46.011
-47.581
-49.402
-51.521
-54.015
-56.918
-60.2
-63.727
-67.205
-70.276
-72.609
-73.87
-73.689
-71.855
-68.434
-63.795
-58.725
-54.119
-50.625
-48.815
-49.303
-52.4
-57.776
-64.357
-70.218
-73.17
-71.262
-62.574
-45.065
-16.736
22.502
70.254
123.537
178.889
235.552
297.072
363.742
431.666
492.813
531.458
535.318
500.643
428.361
330.011
221.917
117.272
30.999
-27.684
-59.072
-65.647
-57.21
-44.273
-30.191
-19.388
-11.648
-5.322
-3.68
-5.159
-8.702
-14.448
-19.254
-23.779
-29.025
-34.078
-39.145
-43.129
-44.939
-44.89
-43.348
-40.92
-38.251
-35.69
-33.542
-32.008
-31.166
-30.998
-31.385
-32.23
-33.444
-34.926
-36.596
-38.389
-40.241
-42.109
-43.937
-45.623
-47.092
-48.297
-49.207
-49.818
-50.133
-50.145
-49.869
-49.34
-48.596
-47.671
-46.594
-45.385
-44.075
-42.702
-41.31
-39.948
-38.651
-37.441
-36.334
-35.339
-34.459
-33.696
-33.042
-32.477
-31.99
-31.568
-31.2
-30.879
-30.593
-30.326
-30.063
-29.786
-29.481
-29.135
-28.733
-28.26
-27.705
-27.055
-26.3
-25.431
-24.438
-23.31
-22.035
-20.603
-19.003
-17.227
-15.265
-13.11
-10.756
-8.198
-5.434
-2.462
0.717
4.103
7.692
11.481
15.464
19.635
23.984
28.505
33.185
38.013
42.977
48.061
53.253
58.536
63.894
69.31
74.766
80.245
85.728
91.195
96.628
102.006
107.31
112.519
117.614
122.574
127.38
132.014
136.457
140.691
144.702
148.473
151.989
155.238
158.208
160.886
163.264
165.333
167.084
168.513
169.614
170.384
170.821
170.924
170.694
170.132
169.241
168.026
166.49
164.642
162.488
160.037
157.3
154.288
151.013
147.49
143.732
139.755
135.575
131.208
126.671
121.981
117.156
112.213
107.172
102.048
96.861
91.629
86.368
81.097
75.831
70.589
65.384
60.233
55.151
50.152
45.25
40.458
35.788
31.254
26.866
22.636
18.572
14.685
10.981
7.467
4.151
1.036
-1.873
-4.573
-7.06
-9.333
-11.39
-13.232
-14.858
-16.268
-17.466
-18.452
-19.231
-19.804
-20.176
-20.351
-20.334
-20.129
-19.742
-19.178
-18.444
-17.546
-16.492
-15.29
-13.947
-12.472
-10.876
-9.166
-7.352
-5.445
-3.454
-1.39
0.737
2.917
5.139
7.393
9.667
11.95
14.233
16.502
18.749
20.961
23.13
25.243
27.291
29.265
31.155
32.951
34.645
36.228
37.691
39.028
40.231
41.294
42.213
42.983
43.601
44.064
44.371
44.522
44.516
44.356
44.043
43.579
42.97
42.22
41.335
40.321
39.186
37.939
36.589
35.145
33.619
32.021
30.362
28.655
26.912
25.144
23.366
21.589
19.828
18.094
16.4
14.759
13.183
11.684
10.271
8.956
7.747
6.653
5.682
4.839
4.132
3.565
3.143
2.867
2.742
2.767
2.942
3.268
3.74
4.358
5.115
6.007
7.028
8.172
9.431
10.797
12.26
13.812
15.443
17.143
18.9
20.703
22.541
24.403
26.278
28.154
30.021
31.868
33.685
35.463
37.191
38.862
40.467
41.997
43.445
44.804
46.068
47.231
48.288
49.234
50.068
50.787
51.39
51.874
52.235
52.469
52.577
52.563
52.429
52.171
51.791
51.304
50.735
50.109
49.437
48.71
47.917
47.076
46.191
45.221
44.102
42.769
41.2
39.447
37.564
35.53
33.387
31.373
29.695
28.404
27.459
26.612
26.328
28.048
32.408
38.521
42.857
40.215
28.301
9.715
-8.023
-16.241
-11.057
4.552
22.139
33.572
35.413
29.475
21.211
14.855
11.774
11.357
11.753
12.035
12.304
12.711
13.436
14.407
15.385
16.303
17.187
18.023
18.801
19.53
20.232
20.951
21.717
22.525
23.349
24.175
24.999
25.815
26.617
27.392
28.13
28.825
29.474
30.075
30.621
31.11
31.536
31.895
32.185
32.403
32.546
32.613
32.603
32.515
32.348
32.104
31.785
31.391
30.925
30.391
29.791
29.13
28.411
27.64
26.821
25.96
25.062
24.134
23.18
22.208
21.222
20.228
19.231
18.236
17.247
16.268
15.303
14.353
13.423
12.515
11.631
10.771
9.937
9.129
8.346
7.586
6.846
6.119
5.402
4.688
3.973
3.248
2.508
1.744
0.955
0.134
-0.724
-1.627
-2.581
-3.596
-4.676
-5.827
-7.055
-8.366
-9.765
-11.251
-12.819
-14.467
-16.194
-18.005
-19.908
-21.908
-24.005
-26.197
-28.479
-30.844
-33.279
-35.762
-38.256
-40.729
-43.152
-45.502
-47.767
-49.923
-51.937
-53.774
-55.394
-56.77
-57.881
-58.7
-59.216
-59.434
-59.377
-59.091
-58.637
-58.063
-57.424
-56.781
-56.185
-55.703
-55.395
-55.328
-55.616
-56.316
-57.403
-58.793
-60.255
-61.505
-62.314
-62.38
-61.29
-58.813
-54.968
-50.026
-44.714
-39.844
-35.985
-33.729
-33.744
-36.327
-41.141
-47.248
-52.873
-55.765
-53.929
-45.402
-27.787
0.109
37.275
82.162
132.304
186.48
247.34
315.903
388.404
455.874
503.708
519.612
499.775
448.956
377.244
293.157
203.007
110.469
20.8
-53.964
-104.357
-124.349
-114.413
-87.267
-56.336
-33.976
-28.75
-38.867
-58.621
-79.729
-94.914
-102.918
-105.624
-107.132
-110.493
-115.48
-120.737
-124.42
-125.598
-124.758
-122.628
-119.896
-117.119
-114.645
-112.696
-111.42
-110.847
-110.889
-111.494
-112.642
-114.265
-116.283
-118.616
-121.175
-123.914
-126.79
-129.715
-132.573
-135.243
-137.633
-139.7
-141.424
-142.793
-143.801
-144.454
-144.773
-144.799
-144.567
-144.108
-143.453
-142.628
-141.67
-140.627
-139.549
-138.488
-137.484
-136.561
-135.734
-135.013
-134.402
-133.9
-133.501
-133.187
-132.948
-132.777
-132.665
-132.608
-132.597
-132.62
-132.667
-132.724
-132.78
-132.825
-132.85
-132.843
-132.798
-132.704
-132.554
-132.341
-132.057
-131.691
-131.232
-130.67
-129.993
-129.189
-128.249
-127.162
-125.917
-124.506
-122.921
-121.156
-119.205
-117.063
-114.724
-112.188
-109.451
-106.511
-103.371
-100.03
-96.492
-92.76
-88.838
-84.733
-80.452
-76.003
-71.396
-66.641
-61.749
-56.735
-51.612
-46.396
-41.104
-35.754
-30.365
-24.955
-19.546
-14.159
-8.814
-3.534
1.66
6.747
11.705
16.513
21.15
25.597
29.834
33.843
37.606
41.107
44.331
47.265
49.895
52.212
54.206
55.87
57.198
58.185
58.829
59.13
59.089
58.709
57.995
56.956
55.6
53.939
51.986
49.755
47.264
44.529
41.571
38.409
35.065
31.562
27.922
24.171
20.331
16.428
12.486
8.532
4.588
0.679
-3.171
-6.94
-10.607
-14.15
-17.55
-20.79
-23.85
-26.717
-29.375
-31.813
-34.018
-35.982
-37.698
-39.159
-40.363
-41.307
-41.992
-42.418
-42.59
-42.512
-42.191
-41.634
-40.851
-39.852
-38.649
-37.256
-35.687
-33.957
-32.081
-30.077
-27.961
-25.751
-23.464
-21.117
-18.729
-16.315
-13.894
-11.481
-9.094
-6.749
-4.459
-2.241
-0.107
1.929
3.855
5.661
7.336
8.871
10.258
11.49
12.561
13.466
14.2
14.76
15.145
15.352
15.382
15.236
14.915
14.422
13.761
12.936
11.953
10.817
9.534
8.112
6.558
4.88
3.086
1.184
-0.816
-2.906
-5.076
-7.316
-9.618
-11.971
-14.366
-16.794
-19.245
-21.711
-24.182
-26.649
-29.103
-31.536
-33.939
-36.304
-38.623
-40.889
-43.093
-45.23
-47.293
-49.277
-51.176
-52.985
-54.7
-56.318
-57.835
-59.248
-60.556
-61.756
-62.848
-63.832
-64.706
-65.472
-66.13
-66.683
-67.132
-67.479
-67.727
-67.879
-67.939
-67.91
-67.797
-67.604
-67.337
-67.001
-66.6
-66.142
-65.631
-65.075
-64.48
-63.851
-63.196
-62.52
-61.831
-61.133
-60.434
-59.739
-59.054
-58.383
-57.732
-57.105
-56.506
-55.939
-55.407
-54.914
-54.46
-54.049
-53.681
-53.358
-53.079
-52.844
-52.653
-52.505
-52.398
-52.33
-52.299
-52.303
-52.337
-52.399
-52.484
-52.589
-52.708
-52.838
-52.972
-53.106
-53.235
-53.353
-53.456
-53.537
-53.593
-53.617
-53.606
-53.554
-53.458
-53.312
-53.115
-52.861
-52.549
-52.177
-51.742
-51.244
-50.681
-50.054
-49.361
-48.605
-47.784
-46.902
-45.958
-44.955
-43.895
-42.781
-41.616
-40.402
-39.143
-37.842
-36.503
-35.13
-33.727
-32.297
-30.844
-29.371
-27.884
-26.385
-24.878
-23.367
-21.855
-20.345
-18.841
-17.346
-15.86
-14.387
-12.929
-11.485
-10.058
-8.648
-7.255
-5.88
-4.523
-3.183
-1.861
-0.557
0.731
2.002
3.258
4.5
5.727
6.94
8.139
9.325
10.497
11.656
12.8
13.93
15.045
16.143
17.224
18.287
19.331
20.355
21.357
22.336
23.291
24.22
25.12
25.99
26.828
27.631
28.397
29.125
29.813
30.457
31.057
31.61
32.115
32.571
32.976
33.329
33.629
33.877
34.071
34.214
34.305
34.345
34.337
34.282
34.183
34.043
33.863
33.646
33.394
33.11
32.797
32.455
32.084
31.687
31.263
30.813
30.339
29.84
29.317
28.773
28.21
27.632
27.039
26.431
25.81
25.175
24.526
23.863
23.185
22.489
21.776
21.05
20.312
19.564
18.8
18.01
17.186
16.324
15.422
14.479
13.497
12.485
11.46
10.452
9.491
8.602
7.806
7.112
6.537
6.099
5.823
5.74
5.867
6.208
6.772
7.565
8.567
9.734
10.995
12.243
13.392
14.379
15.133
15.591
15.683
15.331
14.469
13.067
11.082
8.439
5.143
1.268
-2.996
-7.275
-11.199
-14.463
-16.707
-17.535
-16.796
-14.516
-11.013
-7.067
-3.314
-0.161
1.85
2.298
1.307
-0.646
-2.453
-2.237
1.746
11.07
27.534
52.85
87.156
128.822
175.578
224.044
272.839
324.712
380.444
437.907
491.806
528.354
534.116
502.534
430.906
328.098
211.473
97.492
3.919
-57.453
-85.809
-86.702
-71.175
-51.197
-34.994
-25.099
-20.868
-20.883
-21.603
-22.059
-22.266
-21.237
-20.999
-22.375
-24.759
-28.174
-30.905
-31.751
-30.919
-28.58
-25.325
-21.811
-18.278
-15.012
-12.383
-10.559
-9.567
-9.334
-9.709
-10.553
-11.774
-13.286
-14.959
-16.685
-18.369
-19.9
-21.215
-22.272
-23.031
-23.478
-23.613
-23.435
-22.964
-22.239
-21.296
-20.172
-18.905
-17.517
-16.048
-14.544
-13.056
-11.642
-10.346
-9.197
-8.217
-7.422
-6.821
-6.419
-6.212
-6.183
-6.319
-6.613
-7.054
-7.636
-8.35
-9.179
-10.105
-11.112
-12.183
-13.302
-14.453
-15.618
-16.782
-17.929
-19.045
-20.119
-21.136
-22.08
-22.935
-23.683
-24.31
-24.8
-25.138
-25.308
-25.296
-25.092
-24.683
-24.061
-23.217
-22.145
-20.838
-19.294
-17.51
-15.485
-13.221
-10.72
-7.987
-5.027
-1.851
1.534
5.116
8.881
12.817
16.906
21.133
25.479
29.926
34.454
39.041
43.668
48.311
52.949
57.557
62.115
66.597
70.982
75.246
79.367
83.322
87.092
90.656
93.993
97.086
99.918
102.473
104.736
106.695
108.338
109.656
110.642
111.289
111.593
111.552
111.165
110.434
109.361
107.951
106.211
104.148
101.771
99.092
96.123
92.878
89.371
85.619
81.638
77.446
73.064
68.509
63.803
58.967
54.022
48.988
43.889
38.745
33.577
28.407
23.255
18.141
13.083
8.1
3.21
-1.573
-6.231
-10.752
-15.122
-19.33
-23.364
-27.217
-30.879
-34.343
-37.605
-40.659
-43.501
-46.13
-48.543
-50.742
-52.725
-54.495
-56.055
-57.408
-58.558
-59.51
-60.271
-60.845
-61.241
-61.466
-61.526
-61.43
-61.185
-60.8
-60.283
-59.641
-58.883
-58.015
-57.046
-55.982
-54.831
-53.598
-52.29
-50.912
-49.47
-47.97
-46.416
-44.813
-43.165
-41.478
-39.754
-37.998
-36.214
-34.405
-32.573
-30.723
-28.858
-26.979
-25.091
-23.195
-21.295
-19.394
-17.495
-15.599
-13.712
-11.835
-9.971
-8.125
-6.298
-4.496
-2.721
-0.978
0.729
2.397
4.021
5.597
7.12
8.587
9.994
11.338
12.614
13.819
14.951
16.006
16.983
17.878
18.691
19.419
20.062
20.621
21.094
21.482
21.788
22.011
22.156
22.223
22.217
22.141
21.999
21.795
21.535
21.224
20.868
20.472
20.044
19.59
19.117
18.632
18.141
17.652
17.172
16.707
16.263
15.847
15.464
15.121
14.822
14.572
14.375
14.236
14.156
14.14
14.187
14.3
14.479
14.723
15.033
15.405
15.839
16.332
16.879
17.478
18.124
18.812
19.536
20.29
21.067
21.863
22.669
23.478
24.285
25.081
25.86
26.615
27.341
28.029
28.676
29.274
29.819
30.306
30.731
31.091
31.382
31.601
31.748
31.82
31.818
31.742
31.591
31.369
31.076
30.716
30.292
29.807
29.266
28.673
28.035
27.356
26.642
25.9
25.136
24.356
23.567
22.775
21.986
21.207
20.441
19.696
18.975
18.284
17.625
17.003
16.42
15.878
15.38
14.926
14.516
14.151
13.829
13.549
13.309
13.106
12.937
12.797
12.683
12.59
12.512
12.444
12.38
12.314
12.24
12.151
12.04
11.901
11.727
11.513
11.252
10.941
10.573
10.145
9.653
9.094
8.467
7.77
7.002
6.162
5.253
4.275
3.231
2.125
0.96
-0.257
-1.522
-2.827
-4.164
-5.525
-6.902
-8.284
-9.662
-11.025
-12.364
-13.665
-14.918
-16.11
-17.231
-18.267
-19.208
-20.042
-20.758
-21.346
-21.796
-22.099
-22.247
-22.232
-22.049
-21.692
-21.156
-20.438
-19.536
-18.449
-17.177
-15.722
-14.088
-12.278
-10.3
-8.161
-5.873
-3.445
-0.892
1.775
4.54
7.387
10.302
13.267
16.268
19.287
22.306
25.306
28.268
31.172
33.998
36.728
39.344
41.827
44.161
46.334
48.333
50.148
51.764
53.161
54.322
55.236
55.891
56.283
56.41
56.278
55.899
55.298
54.5
53.535
52.424
51.186
49.839
48.407
46.922
45.427
43.96
42.55
41.219
39.983
38.849
37.807
36.814
35.799
34.695
33.448
32.011
30.338
28.365
26.026
23.249
19.98
16.162
11.701
6.572
0.841
-5.329
-11.617
-17.674
-23.206
-27.879
-31.277
-33.159
-33.525
-32.647
-31.219
-29.91
-29.109
-29.218
-30.689
-33.689
-37.884
-42.262
-45.023
-44.316
-38.521
-25.954
-4.918
26.251
67.431
116.133
169.522
224.307
279.709
339.082
402.536
466.699
524.795
562.122
566.713
533.568
460.829
358.051
241.546
127.083
33.884
-25.482
-50.817
-48.678
-33.97
-21.635
-17.331
-20.999
-27.68
-31.722
-32.6
-32.076
-32.355
-35.388
-40.829
-47.271
-53.653
-58.833
-62.02
-63.071
-62
-59.064
-54.817
-49.78
-44.404
-39.154
-34.416
-30.385
-27.151
-24.708
-22.948
-21.783
-21.119
-20.843
-20.847
-21.039
-21.348
-21.704
-22.027
-22.22
-22.175
-21.817
-21.108
-20.028
-18.574
-16.75
-14.57
-12.065
-9.284
-6.273
-3.074
0.272
3.726
7.242
10.762
14.233
17.599
20.817
23.861
26.71
29.352
31.781
33.995
36.001
37.812
39.437
40.885
42.162
43.275
44.236
45.056
45.751
46.334
46.821
47.224
47.558
47.836
48.07
48.274
48.46
48.637
48.82
49.022
49.256
49.539
49.884
50.304
50.814
51.427
52.153
53.004
53.989
55.114
56.388
57.815
59.399
61.144
63.051
65.121
67.352
69.744
72.291
74.99
77.835
80.819
83.934
87.17
90.517
93.964
97.498
101.106
104.774
108.489
112.234
115.993
119.751
123.49
127.194
130.843
134.422
137.912
141.295
144.555
147.674
150.637
153.427
156.029
158.428
160.61
162.562
164.271
165.725
166.914
167.827
168.454
168.788
168.822
168.55
167.967
167.068
165.851
164.314
162.457
160.28
157.784
154.972
151.848
148.418
144.686
140.661
136.351
131.765
126.913
121.807
116.457
110.877
105.081
99.081
92.893
86.531
80.011
73.35
66.563
59.668
52.68
45.616
38.494
31.33
24.141
16.944
9.754
2.589
-4.537
-11.606
-18.605
-25.519
-32.333
-39.035
-45.611
-52.05
-58.341
-64.473
-70.438
-76.225
-81.828
-87.24
-92.454
-97.466
-102.272
-106.868
-111.252
-115.424
-119.382
-123.127
-126.661
-129.985
-133.103
-136.017
-138.732
-141.253
-143.585
-145.733
-147.706
-149.51
-151.153
-152.642
-153.987
-155.196
-156.277
-157.24
-158.094
-158.848
-159.511
-160.093
-160.602
-161.048
-161.439
-161.784
-162.091
-162.367
-162.622
-162.86
-163.089
-163.315
-163.543
-163.779
-164.027
-164.292
-164.577
-164.886
-165.222
-165.587
-165.983
-166.41
-166.871
-167.364
-167.89
-168.448
-169.037
-169.655
-170.301
-170.972
-171.667
-172.381
-173.113
-173.859
-174.614
-175.376
-176.14
-176.902
-177.659
-178.406
-179.139
-179.855
-180.55
-181.22
-181.862
-182.471
-183.046
-183.581
-184.074
-184.523
-184.924
-185.274
-185.572
-185.816
-186.004
-186.135
-186.207
-186.22
-186.173
-186.066
-185.898
-185.669
-185.38
-185.032
-184.625
-184.16
-183.64
-183.066
-182.439
-181.763
-181.038
-180.267
-179.453
-178.597
-177.702
-176.771
-175.806
-174.81
-173.787
-172.739
-171.669
-170.581
-169.476
-168.358
-167.231
-166.095
-164.955
-163.811
-162.668
-161.527
-160.391
-159.261
-158.14
-157.031
-155.934
-154.852
-153.785
-152.736
-151.705
-150.694
-149.702
-148.732
-147.785
-146.86
-145.958
-145.081
-144.229
-143.401
-142.599
-141.821
-141.068
-140.338
-139.632
-138.949
-138.288
-137.649
-137.03
-136.43
-135.85
-135.288
-134.743
-134.214
-133.699
-133.198
-132.709
-132.231
-131.762
-131.302
-130.849
-130.403
-129.961
-129.522
-129.085
-128.649
-128.212
-127.771
-127.326
-126.874
-126.413
-125.943
-125.461
-124.966
-124.456
-123.931
-123.389
-122.829
-122.25
-121.651
-121.031
-120.39
-119.726
-119.04
-118.33
-117.596
-116.838
-116.056
-115.249
-114.418
-113.563
-112.682
-111.777
-110.847
-109.891
-108.911
-107.907
-106.878
-105.825
-104.749
-103.651
-102.531
-101.391
-100.232
-99.053
-97.855
-96.64
-95.406
-94.155
-92.887
-91.6
-90.296
-88.975
-87.636
-86.279
-84.904
-83.509
-82.094
-80.66
-79.203
-77.725
-76.223
-74.699
-73.151
-71.579
-69.984
-68.366
-66.725
-65.062
-63.378
-61.674
-59.951
-58.209
-56.452
-54.681
-52.899
-51.107
-49.311
-47.512
-45.718
-43.934
-42.166
-40.42
-38.703
-37.022
-35.384
-33.796
-32.263
-30.791
-29.383
-28.047
-26.79
-25.618
-24.538
-23.554
-22.671
-21.892
-21.221
-20.656
-20.194
-19.831
-19.563
-19.39
-19.319
-19.354
-19.493
-19.736
-20.076
-20.504
-21.008
-21.566
-22.149
-22.728
-23.279
-23.781
-24.223
-24.588
-24.851
-24.98
-24.937
-24.688
-24.208
-23.465
-22.436
-21.128
-19.552
-17.747
-15.77
-13.643
-11.395
-9.069
-6.689
-4.303
-1.977
0.258
2.317
4.06
5.459
6.546
7.417
8.399
9.846
12.037
15.385
20.304
26.838
34.778
43.735
52.769
60.734
66.787
70.034
69.564
66.333
61.851
56.486
52.535
50.892
51.831
61.005
81.714
115.764
165.786
226.848
295.518
371.558
449.751
526.407
593.315
636.283
648.697
628.643
581.155
520.11
454.829
390.858
331.235
273.998
219.949
172.521
134.357
108.019
93.839
89.663
92.946
101.187
111.808
122.474
131.233
136.839
138.917
137.821
134.313
129.179
123.3
117.651
113.065
109.998
108.479
108.207
108.736
109.651
110.581
111.146
111.004
109.971
108.021
105.241
101.79
97.821
93.462
88.844
84.123
79.424
74.864
70.562
66.59
63.006
59.864
57.19
55.003
53.316
52.123
51.397
51.116
51.248
51.762
52.635
53.829
55.299
56.999
58.875
60.887
63.009
65.218
67.496
69.832
72.215
74.643
77.123
79.656
82.24
84.873
87.547
90.26
93.012
95.804
98.636
101.506
104.411
107.348
110.314
113.307
116.32
119.349
122.386
125.426
128.467
131.506
134.541
137.572
140.595
143.609
146.615
149.611
152.595
155.564
158.518
161.452
164.365
167.255
170.118
172.952
175.752
178.517
181.241
183.921
186.553
189.132
191.652
194.108
196.494
198.804
201.031
203.168
205.209
207.145
208.97
210.676
212.255
213.7
215.002
216.154
217.148
217.976
218.631
219.106
219.394
219.489
219.384
219.075
218.556
217.822
216.87
215.696
214.297
212.67
210.815
208.729
206.412
203.863
201.085
198.078
194.844
191.386
187.708
183.813
179.707
175.394
170.881
166.173
161.278
156.202
150.954
145.541
139.971
134.254
128.397
122.411
116.304
110.086
103.766
97.354
90.86
84.293
77.662
70.979
64.252
57.491
50.705
43.905
37.1
30.3
23.514
16.75
10.02
3.331
-3.307
-9.885
-16.395
-22.827
-29.174
-35.426
-41.576
-47.615
-53.534
-59.327
-64.984
-70.498
-75.862
-81.068
-86.108
-90.976
-95.664
-100.167
-104.476
-108.587
-112.492
-116.187
-119.665
-122.923
-125.955
-128.758
-131.328
-133.663
-135.76
-137.618
-139.235
-140.612
-141.748
-142.646
-143.305
-143.73
-143.923
-143.887
-143.628
-143.151
-142.461
-141.566
-140.471
-139.186
-137.717
-136.073
-134.265
-132.3
-130.19
-127.945
-125.575
-123.092
-120.506
-117.829
-115.073
-112.25
-109.37
-106.445
-103.487
-100.507
-97.514
-94.52
-91.535
-88.567
-85.626
-82.72
-79.857
-77.043
-74.285
-71.589
-68.96
-66.401
-63.917
-61.509
-59.181
-56.935
-54.769
-52.686
-50.685
-48.764
-46.922
-45.157
-43.466
-41.846
-40.292
-38.8
-37.366
-35.984
-34.648
-33.354
-32.093
-30.861
-29.651
-28.457
-27.271
-26.088
-24.901
-23.705
-22.494
-21.263
-20.007
-18.722
-17.404
-16.049
-14.655
-13.219
-11.739
-10.215
-8.645
-7.03
-5.37
-3.666
-1.919
-0.133
1.69
3.546
5.43
7.339
9.267
11.206
13.152
15.096
17.031
18.949
20.841
22.699
24.512
26.274
27.973
29.6
31.147
32.604
33.962
35.213
36.348
37.36
38.239
38.981
39.576
40.02
40.307
40.431
40.389
40.175
39.788
39.224
38.481
37.559
36.456
35.173
33.711
32.072
30.258
28.272
26.119
23.802
21.328
18.702
15.93
13.021
9.98
6.818
3.541
0.159
-3.319
-6.884
-10.525
-14.234
-18
-21.814
-25.664
-29.541
-33.434
-37.332
-41.226
-45.106
-48.96
-52.779
-56.553
-60.27
-63.922
-67.499
-70.991
-74.388
-77.681
-80.861
-83.919
-86.845
-89.633
-92.274
-94.759
-97.082
-99.235
-101.213
-103.008
-104.614
-106.028
-107.243
-108.257
-109.065
-109.665
-110.054
-110.23
-110.193
-109.943
-109.48
-108.806
-107.922
-106.83
-105.536
-104.044
-102.359
-100.488
-98.437
-96.216
-93.834
-91.301
-88.629
-85.831
-82.918
-79.905
-76.809
-73.646
-70.433
-67.187
-63.926
-60.669
-57.433
-54.238
-51.099
-48.031
-45.051
-42.173
-39.416
-36.793
-34.32
-32.01
-29.877
-27.933
-26.19
-24.658
-23.34
-22.239
-21.361
-20.711
-20.3
-20.132
-20.208
-20.526
-21.083
-21.871
-22.876
-24.075
-25.434
-26.921
-28.506
-30.167
-31.885
-33.636
-35.391
-37.115
-38.773
-40.342
-41.801
-43.126
-44.296
-45.311
-46.195
-46.999
-47.789
-48.613
-49.494
-50.459
-51.544
-52.795
-54.269
-56.011
-58.012
-60.293
-62.933
-65.944
-69.278
-72.759
-76.004
-78.676
-80.603
-81.522
-81.115
-79.299
-76.102
-71.913
-67.686
-64.072
-61.251
-59.765
-60.2
-62.436
-66.218
-69.92
-70.053
-65.064
-54.788
-39.481
-21.426
-0.573
25.406
58.657
102.3
157.63
223.575
294.819
361.221
410.857
431.104
416.127
368.8
296.085
208.074
113.896
19.921
-65.84
-133.644
-176.508
-191.274
-181.676
-157.487
-129.132
-105.867
-92.159
-89.246
-95.17
-104.32
-113.138
-118.633
-119.94
-120.217
-120.938
-122.467
-124.671
-125.638
-124.548
-121.873
-118.076
-113.892
-109.924
-106.386
-103.414
-101.124
-99.497
-98.382
-97.673
-97.279
-97.083
-97.021
-97.011
-96.952
-96.771
-96.388
-95.733
-94.759
-93.434
-91.739
-89.681
-87.268
-84.523
-81.489
-78.207
-74.718
-71.067
-67.287
-63.424
-59.535
-55.679
-51.922
-48.317
-44.9
-41.7
-38.742
-36.045
-33.624
-31.493
-29.646
-28.078
-26.79
-25.774
-25.021
-24.511
-24.21
-24.079
-24.089
-24.218
-24.452
-24.787
-25.216
-25.735
-26.343
-27.031
-27.789
-28.613
-29.484
-30.389
-31.333
-32.323
-33.391
-34.578
-35.894
-37.336
-38.886
-40.499
-42.125
-43.701
-45.143
-46.385
-47.369
-48.04
-48.365
-48.311
-47.82
-46.835
-45.277
-43.052
-40.104
-36.401
-31.92
-26.688
-20.743
-14.149
-7.012
0.574
8.537
16.803
25.322
34.048
42.909
51.834
60.742
69.529
78.115
86.433
94.418
102.036
109.271
116.125
122.633
128.826
134.713
140.299
145.573
150.517
155.127
159.395
163.312
166.883
170.111
172.998
175.552
177.769
179.638
181.141
182.248
182.932
183.181
182.99
182.359
181.3
179.823
177.944
175.688
173.077
170.132
166.874
163.321
159.496
155.425
151.137
146.661
142.029
137.272
132.417
127.491
122.522
117.532
112.544
107.576
102.648
97.777
92.982
88.281
83.69
79.225
74.898
70.723
66.712
62.872
59.211
55.734
52.443
49.342
46.43
43.705
41.166
38.809
36.629
34.62
32.775
31.087
29.548
28.149
26.881
25.733
24.697
23.761
22.914
22.148
21.451
20.813
20.225
19.677
19.159
18.662
18.176
17.693
17.204
16.702
16.178
15.625
15.037
14.408
13.733
13.009
12.23
11.394
10.498
9.541
8.521
7.437
6.288
5.075
3.797
2.456
1.052
-0.413
-1.937
-3.518
-5.154
-6.842
-8.579
-10.362
-12.187
-14.052
-15.951
-17.88
-19.836
-21.812
-23.805
-25.807
-27.815
-29.821
-31.821
-33.808
-35.776
-37.718
-39.629
-41.503
-43.332
-45.111
-46.834
-48.495
-50.087
-51.606
-53.044
-54.398
-55.662
-56.831
-57.9
-58.866
-59.724
-60.471
-61.104
-61.621
-62.018
-62.296
-62.452
-62.488
-62.402
-62.196
-61.873
-61.434
-60.882
-60.222
-59.457
-58.593
-57.636
-56.592
-55.467
-54.27
-53.008
-51.689
-50.323
-48.918
-47.484
-46.029
-44.565
-43.1
-41.644
-40.208
-38.799
-37.429
-36.106
-34.838
-33.635
-32.503
-31.451
-30.485
-29.611
-28.834
-28.159
-27.59
-27.128
-26.777
-26.536
-26.407
-26.387
-26.476
-26.669
-26.964
-27.356
-27.839
-28.405
-29.049
-29.76
-30.531
-31.351
-32.21
-33.096
-33.998
-34.903
-35.8
-36.677
-37.519
-38.315
-39.052
-39.716
-40.297
-40.781
-41.159
-41.418
-41.55
-41.543
-41.392
-41.087
-40.623
-39.994
-39.194
-38.222
-37.075
-35.751
-34.252
-32.577
-30.732
-28.719
-26.544
-24.215
-21.739
-19.128
-16.392
-13.545
-10.602
-7.576
-4.486
-1.347
1.822
5.005
8.184
11.342
14.46
17.523
20.511
23.407
26.193
28.853
31.369
33.727
35.912
37.909
39.711
41.309
42.693
43.855
44.78
45.457
45.882
46.051
45.964
45.627
45.05
44.253
43.272
42.138
40.887
39.548
38.144
36.7
35.251
33.832
32.491
31.266
30.178
29.249
28.501
27.94
27.553
27.291
27.07
26.802
26.425
25.892
25.164
24.187
22.895
21.216
19.094
16.528
13.515
10.012
6.038
1.663
-2.92
-7.307
-11.108
-14.092
-15.982
-16.476
-15.475
-12.897
-8.952
-4.399
0.271
4.949
9.241
12.751
15.55
17.609
20.43
27.487
40.863
61.052
86.002
110.623
131.855
151.684
176.989
217.327
279.703
362.827
455.482
541.133
603.008
628.214
612.725
559.628
474.425
367.805
252.614
140.852
48.772
-11.281
-35.423
-24.928
7.459
43.944
70.834
78.776
68.437
48.604
28.715
15.639
10.786
10.514
10.044
6.858
1.115
-5.287
-10.151
-12.71
-13.274
-12.393
-10.761
-8.842
-6.942
-5.459
-4.63
-4.497
-5.052
-6.229
-7.97
-10.233
-12.923
-15.903
-19.063
-22.331
-25.65
-28.955
-32.143
-35.085
-37.693
-39.914
-41.724
-43.114
-44.072
-44.589
-44.682
-44.386
-43.737
-42.769
-41.513
-39.996
-38.257
-36.342
-34.304
-32.199
-30.068
-27.939
-25.834
-23.77
-21.757
-19.806
-17.916
-16.082
-14.302
-12.577
-10.909
-9.303
-7.758
-6.272
-4.842
-3.465
-2.137
-0.86
0.37
1.554
2.693
3.786
4.834
5.836
6.794
7.711
8.592
9.442
10.266
11.071
11.864
12.65
13.438
14.233
15.041
15.869
16.722
17.606
18.528
19.492
20.504
21.568
22.689
23.869
25.113
26.421
27.796
29.238
30.748
32.326
33.969
35.676
37.443
39.267
41.143
43.065
45.026
47.019
49.035
51.065
53.099
55.127
57.136
59.116
61.054
62.937
64.753
66.488
68.128
69.662
71.074
72.351
73.481
74.451
75.248
75.86
76.276
76.486
76.478
76.245
75.778
75.071
74.116
72.909
71.448
69.729
67.752
65.518
63.028
60.287
57.299
54.071
50.61
46.925
43.027
38.928
34.639
30.175
25.552
20.784
15.89
10.887
5.793
0.628
-4.588
-9.836
-15.095
-20.345
-25.565
-30.735
-35.835
-40.844
-45.744
-50.516
-55.141
-59.602
-63.884
-67.971
-71.848
-75.505
-78.928
-82.108
-85.036
-87.705
-90.108
-92.241
-94.102
-95.687
-96.997
-98.033
-98.798
-99.296
-99.532
-99.512
-99.246
-98.741
-98.008
-97.059
-95.904
-94.558
-93.034
-91.347
-89.511
-87.543
-85.458
-83.272
-81.002
-78.663
-76.271
-73.843
-71.393
-68.937
-66.488
-64.061
-61.669
-59.325
-57.04
-54.826
-52.693
-50.651
-48.708
-46.871
-45.147
-43.542
-42.061
-40.707
-39.482
-38.389
-37.428
-36.599
-35.901
-35.332
-34.889
-34.569
-34.367
-34.279
-34.298
-34.42
-34.638
-34.945
-35.335
-35.802
-36.337
-36.934
-37.587
-38.288
-39.03
-39.806
-40.61
-41.436
-42.278
-43.128
-43.983
-44.837
-45.684
-46.521
-47.343
-48.147
-48.928
-49.684
-50.412
-51.111
-51.779
-52.413
-53.014
-53.581
-54.113
-54.609
-55.071
-55.497
-55.887
-56.243
-56.562
-56.846
-57.094
-57.305
-57.48
-57.617
-57.716
-57.775
-57.795
-57.773
-57.709
-57.601
-57.447
-57.247
-56.998
-56.7
-56.349
-55.946
-55.487
-54.972
-54.398
-53.764
-53.068
-52.307
-51.481
-50.588
-49.626
-48.595
-47.493
-46.322
-45.08
-43.769
-42.389
-40.943
-39.432
-37.859
-36.228
-34.543
-32.807
-31.027
-29.206
-27.352
-25.47
-23.566
-21.648
-19.723
-17.797
-15.878
-13.973
-12.09
-10.236
-8.419
-6.647
-4.927
-3.266
-1.673
-0.155
1.282
2.631
3.885
5.039
6.088
7.026
7.849
8.555
9.141
9.604
9.944
10.16
10.254
10.227
10.081
9.82
9.447
8.967
8.386
7.708
6.941
6.09
5.163
4.167
3.109
1.998
0.841
-0.353
-1.575
-2.818
-4.072
-5.329
-6.58
-7.818
-9.034
-10.22
-11.369
-12.473
-13.526
-14.52
-15.451
-16.314
-17.103
-17.816
-18.449
-19.001
-19.47
-19.857
-20.16
-20.382
-20.523
-20.585
-20.571
-20.484
-20.326
-20.102
-19.814
-19.468
-19.067
-18.616
-18.121
-17.586
-17.015
-16.414
-15.788
-15.142
-14.481
-13.811
-13.136
-12.462
-11.794
-11.139
-10.5
-9.883
-9.292
-8.732
-8.207
-7.721
-7.277
-6.88
-6.532
-6.237
-5.999
-5.82
-5.704
-5.656
-5.678
-5.777
-5.956
-6.221
-6.576
-7.026
-7.577
-8.233
-8.998
-9.876
-10.871
-11.985
-13.225
-14.594
-16.095
-17.733
-19.509
-21.425
-23.483
-25.681
-28.017
-30.486
-33.083
-35.809
-38.666
-41.656
-44.776
-48.02
-51.383
-54.852
-58.414
-62.047
-65.718
-69.397
-73.056
-76.67
-80.222
-83.693
-87.055
-90.275
-93.312
-96.128
-98.7
-101.008
-103.024
-104.741
-106.173
-107.353
-108.351
-109.224
-110
-110.71
-111.387
-112.068
-112.817
-113.699
-114.745
-115.995
-117.534
-119.376
-121.483
-123.738
-125.824
-127.381
-128.147
-127.837
-126.103
-122.812
-118.039
-112.046
-105.603
-99.574
-94.416
-90.536
-88.579
-88.79
-90.655
-93.437
-94.844
-91.128
-80.729
-62.839
-37.031
-7.367
24.114
60.016
102.005
157.345
232.76
322.354
415.585
494.556
537.611
537.067
495.345
422.169
333.366
240.115
149.08
67.588
3.552
-37.668
-53.961
-50.413
-39.011
-28.164
-22.098
-20.574
-18.688
-15.064
-11.011
-8.001
-8.495
-12.777
-19.309
-26.993
-34.526
-40.717
-45.217
-47.868
-48.677
-48.104
-46.698
-44.884
-43.14
-41.927
-41.441
-41.779
-42.964
-44.866
-47.372
-50.385
-53.761
-57.366
-61.111
-64.911
-68.695
-72.396
-75.902
-79.119
-81.988
-84.464
-86.529
-88.175
-89.384
-90.161
-90.531
-90.521
-90.163
-89.484
-88.502
-87.249
-85.762
-84.086
-82.271
-80.355
-78.361
-76.312
-74.218
-72.09
-69.933
-67.747
-65.523
-63.255
-60.941
-58.581
-56.179
-53.734
-51.242
-48.698
-46.101
-43.448
-40.739
-37.973
-35.15
-32.271
-29.337
-26.352
-23.319
-20.24
-17.115
-13.944
-10.727
-7.461
-4.145
-0.779
2.641
6.116
9.647
13.234
16.877
20.576
24.33
28.139
32.002
35.916
39.88
43.891
47.946
52.042
56.173
60.336
64.525
68.733
72.955
77.183
81.408
85.623
89.819
93.984
98.11
102.185
106.196
110.132
113.977
117.72
121.344
124.836
128.179
131.359
134.361
137.168
139.767
142.141
144.278
146.161
147.779
149.118
150.166
150.912
151.346
151.457
151.239
150.685
149.788
148.546
146.954
145.013
142.722
140.083
137.101
133.781
130.13
126.158
121.875
117.293
112.428
107.296
101.914
96.301
90.478
84.466
78.288
71.968
65.531
59.002
52.405
45.769
39.118
32.479
25.879
19.342
12.894
6.559
0.362
-5.675
-11.53
-17.183
-22.614
-27.807
-32.743
-37.41
-41.795
-45.886
-49.675
-53.155
-56.321
-59.17
-61.701
-63.915
-65.815
-67.405
-68.692
-69.683
-70.388
-70.817
-70.982
-70.898
-70.576
-70.033
-69.284
-68.344
-67.23
-65.959
-64.547
-63.012
-61.368
-59.633
-57.823
-55.953
-54.037
-52.089
-50.123
-48.151
-46.184
-44.231
-42.302
-40.405
-38.547
-36.732
-34.965
-33.25
-31.588
-29.981
-28.428
-26.929
-25.481
-24.084
-22.732
-21.424
-20.155
-18.922
-17.719
-16.542
-15.387
-14.249
-13.124
-12.007
-10.895
-9.785
-8.671
-7.552
-6.425
-5.287
-4.138
-2.976
-1.801
-0.613
0.587
1.799
3.02
4.248
5.48
6.713
7.942
9.164
10.374
11.568
12.739
13.884
14.997
16.073
17.107
18.097
19.036
19.922
20.752
21.522
22.231
22.876
23.456
23.97
24.418
24.799
25.116
25.368
25.558
25.687
25.758
25.773
25.735
25.649
25.516
25.342
25.13
24.886
24.612
24.314
23.997
23.665
23.322
22.974
22.622
22.272
21.926
21.588
21.258
20.94
20.635
20.342
20.064
19.799
19.547
19.306
19.075
18.851
18.633
18.417
18.201
17.982
17.755
17.519
17.27
17.004
16.718
16.408
16.072
15.705
15.305
14.868
14.392
13.875
13.313
12.706
12.051
11.348
10.597
9.796
8.945
8.047
7.1
6.108
5.071
3.993
2.875
1.722
0.537
-0.676
-1.913
-3.171
-4.445
-5.731
-7.025
-8.322
-9.619
-10.911
-12.194
-13.465
-14.719
-15.954
-17.165
-18.348
-19.503
-20.624
-21.71
-22.76
-23.769
-24.738
-25.664
-26.545
-27.382
-28.171
-28.913
-29.608
-30.254
-30.852
-31.403
-31.906
-32.361
-32.77
-33.133
-33.45
-33.721
-33.948
-34.13
-34.268
-34.362
-34.413
-34.422
-34.388
-34.313
-34.198
-34.042
-33.846
-33.61
-33.336
-33.023
-32.672
-32.284
-31.86
-31.4
-30.906
-30.378
-29.819
-29.228
-28.608
-27.96
-27.286
-26.586
-25.862
-25.116
-24.351
-23.569
-22.771
-21.962
-21.142
-20.315
-19.483
-18.649
-17.815
-16.981
-16.15
-15.324
-14.504
-13.691
-12.886
-12.09
-11.305
-10.529
-9.764
-9.009
-8.262
-7.524
-6.793
-6.067
-5.345
-4.626
-3.907
-3.187
-2.465
-1.737
-1.003
-0.26
0.494
1.264
2.05
2.856
3.683
4.535
5.413
6.316
7.245
8.196
9.169
10.162
11.173
12.198
13.235
14.283
15.34
16.407
17.479
18.553
19.625
20.69
21.746
22.79
23.816
24.821
25.802
26.758
27.693
28.605
29.49
30.337
31.134
31.87
32.541
33.145
33.679
34.143
34.544
34.895
35.226
35.56
35.919
36.317
36.765
37.287
37.912
38.675
39.612
40.747
42.095
43.663
45.456
47.459
49.646
51.978
54.382
56.782
59.106
61.279
63.232
64.909
66.225
67.053
67.327
67.059
66.352
65.438
64.544
63.794
63.373
63.624
64.801
66.926
69.751
72.639
74.904
76.348
76.866
75.849
72.943
68.452
62.996
58.966
58.983
63.371
73.155
88.333
108.613
136.727
172.358
215.736
267.284
324.367
389.164
459.269
527.611
586.751
620.734
619.661
582.232
510.914
419.662
322.18
229.064
151.505
94.55
60.894
49.65
54.345
67.754
81.645
91.346
95.995
95.726
93.871
91.96
90.268
89.713
88.223
84.941
80.369
74.493
69.127
65.498
63.475
63.032
63.629
64.631
65.826
66.91
67.473
67.34
66.463
64.881
62.739
60.159
57.219
54.013
50.675
47.326
44.069
41.011
38.218
35.743
33.635
31.926
30.63
29.753
29.287
29.206
29.482
30.09
30.998
32.183
33.609
35.232
37.001
38.859
40.758
42.665
44.552
46.394
48.174
49.879
51.503
53.05
54.521
55.913
57.223
58.445
59.576
60.618
61.572
62.442
63.23
63.937
64.563
65.112
65.584
65.983
66.307
66.559
66.739
66.853
66.908
66.911
66.872
66.798
66.699
66.586
66.47
66.361
66.268
66.2
66.167
66.179
66.243
66.368
66.562
66.832
67.184
67.624
68.157
68.787
69.517
70.351
71.29
72.334
73.485
74.739
76.095
77.549
79.096
80.729
82.44
84.221
86.061
87.947
89.868
91.808
93.752
95.683
97.586
99.441
101.231
102.936
104.539
106.021
107.361
108.543
109.547
110.356
110.952
111.319
111.44
111.3
110.884
110.178
109.17
107.849
106.203
104.225
101.907
99.243
96.23
92.865
89.149
85.084
80.673
75.922
70.84
65.435
59.721
53.71
47.418
40.862
34.061
27.035
19.804
12.391
4.82
-2.887
-10.704
-18.608
-26.572
-34.571
-42.58
-50.574
-58.527
-66.413
-74.209
-81.89
-89.433
-96.816
-104.017
-111.017
-117.796
-124.338
-130.628
-136.651
-142.395
-147.851
-153.01
-157.865
-162.413
-166.649
-170.574
-174.189
-177.497
-180.501
-183.209
-185.626
-187.763
-189.629
-191.235
-192.592
-193.714
-194.614
-195.307
-195.807
-196.13
-196.292
-196.308
-196.195
-195.97
-195.647
-195.242
-194.77
-194.246
-193.683
-193.093
-192.49
-191.883
-191.283
-190.697
-190.135
-189.601
-189.101
-188.639
-188.218
-187.84
-187.504
-187.211
-186.959
-186.746
-186.569
-186.424
-186.306
-186.21
-186.13
-186.061
-185.996
-185.927
-185.847
-185.748
-185.624
-185.465
-185.266
-185.019
-184.716
-184.352
-183.92
-183.416
-182.836
-182.174
-181.429
-180.597
-179.679
-178.672
-177.578
-176.397
-175.132
-173.785
-172.359
-170.86
-169.291
-167.658
-165.967
-164.225
-162.438
-160.614
-158.759
-156.883
-154.992
-153.096
-151.202
-149.32
-147.457
-145.622
-143.824
-142.069
-140.365
-138.72
-137.14
-135.629
-134.195
-132.84
-131.568
-130.384
-129.288
-128.282
-127.368
-126.544
-125.811
-125.165
-124.606
-124.13
-123.734
-123.413
-123.163
-122.978
-122.853
-122.782
-122.758
-122.776
-122.828
-122.907
-123.006
-123.117
-123.231
-123.342
-123.442
-123.522
-123.576
-123.597
-123.576
-123.508
-123.387
-123.206
-122.96
-122.645
-122.256
-121.788
-121.239
-120.606
-119.886
-119.077
-118.178
-117.19
-116.11
-114.94
-113.68
-112.33
-110.892
-109.368
-107.758
-106.066
-104.292
-102.441
-100.514
-98.516
-96.449
-94.318
-92.126
-89.878
-87.578
-85.23
-82.839
-80.409
-77.945
-75.452
-72.934
-70.397
-67.844
-65.281
-62.713
-60.144
-57.579
-55.022
-52.478
-49.951
-47.446
-44.968
-42.521
-40.11
-37.741
-35.419
-33.149
-30.936
-28.785
-26.703
-24.695
-22.765
-20.919
-19.162
-17.499
-15.934
-14.474
-13.12
-11.879
-10.753
-9.746
-8.861
-8.101
-7.468
-6.963
-6.588
-6.344
-6.231
-6.25
-6.4
-6.681
-7.089
-7.624
-8.281
-9.056
-9.945
-10.941
-12.038
-13.229
-14.505
-15.858
-17.279
-18.758
-20.283
-21.845
-23.432
-25.032
-26.634
-28.224
-29.792
-31.326
-32.813
-34.243
-35.603
-36.884
-38.073
-39.163
-40.143
-41.005
-41.741
-42.342
-42.804
-43.121
-43.289
-43.305
-43.168
-42.88
-42.441
-41.856
-41.13
-40.269
-39.282
-38.176
-36.96
-35.646
-34.242
-32.762
-31.215
-29.614
-27.975
-26.311
-24.638
-22.969
-21.32
-19.705
-18.139
-16.632
-15.193
-13.831
-12.559
-11.393
-10.347
-9.429
-8.648
-8.009
-7.514
-7.162
-6.94
-6.823
-6.786
-6.803
-6.851
-6.92
-6.992
-7.043
-7.045
-6.959
-6.754
-6.414
-5.927
-5.273
-4.442
-3.435
-2.296
-1.107
0.053
1.133
2.107
2.955
3.635
4.08
4.222
3.998
3.398
2.391
0.899
-1.087
-3.512
-6.162
-8.594
-10.387
-11.232
-10.743
-8.547
-4.551
1.213
8.285
15.618
22.49
28.417
32.507
34.218
33.811
31.59
29.683
31.334
37.721
50.555
70.521
96.568
130.251
172.12
222.797
284.812
357.79
439.706
524.152
598.247
648.826
665.778
646.109
596.245
525.944
442.999
353.965
263.609
178.662
110.798
67.712
50.941
54.783
66.23
76.383
81.875
83.599
86.22
90.882
96.085
100.189
100.992
98.356
93.663
87.928
82.429
78.338
76.002
75.532
76.787
79.185
82.196
85.436
88.447
90.805
92.304
92.837
92.424
91.235
89.404
87.043
84.289
81.254
78.051
74.785
71.553
68.461
65.599
63.027
60.789
58.909
57.391
56.239
55.439
54.951
54.739
54.765
54.992
55.397
55.94
56.573
57.242
57.887
58.464
58.944
59.301
59.519
59.588
59.502
59.265
58.892
58.395
57.78
57.054
56.22
55.287
54.267
53.173
52.02
50.82
49.584
48.326
47.057
45.789
44.534
43.299
42.094
40.929
39.816
38.768
37.797
36.918
36.142
35.483
34.955
34.571
34.34
34.273
34.38
34.67
35.149
35.824
36.702
37.785
39.076
40.578
42.291
44.213
46.342
48.673
51.203
53.923
56.826
59.902
63.142
66.533
70.062
73.717
77.483
81.343
85.282
89.282
93.325
97.392
101.463
105.52
109.54
113.503
117.39
121.177
124.847
128.376
131.747
134.939
137.934
140.714
143.261
145.56
147.595
149.353
150.822
151.991
152.849
153.39
153.606
153.493
153.047
152.267
151.153
149.704
147.926
145.821
143.397
140.66
137.619
134.286
130.671
126.79
122.655
118.283
113.691
108.897
103.92
98.78
93.498
88.093
82.588
77.003
71.36
65.681
59.986
54.295
48.63
43.008
37.45
31.972
26.591
21.324
16.184
11.186
6.342
1.663
-2.841
-7.161
-11.29
-15.22
-18.949
-22.47
-25.783
-28.887
-31.78
-34.466
-36.946
-39.225
-41.307
-43.199
-44.907
-46.438
-47.802
-49.006
-50.061
-50.977
-51.762
-52.427
-52.982
-53.438
-53.804
-54.089
-54.303
-54.455
-54.554
-54.606
-54.62
-54.603
-54.56
-54.497
-54.42
-54.334
-54.241
-54.145
-54.05
-53.956
-53.865
-53.778
-53.694
-53.612
-53.532
-53.452
-53.369
-53.28
-53.182
-53.071
-52.945
-52.798
-52.626
-52.426
-52.194
-51.924
-51.615
-51.261
-50.86
-50.408
-49.903
-49.343
-48.726
-48.05
-47.314
-46.517
-45.659
-44.74
-43.762
-42.724
-41.629
-40.478
-39.275
-38.022
-36.723
-35.382
-34.003
-32.593
-31.155
-29.697
-28.225
-26.745
-25.263
-23.789
-22.328
-20.889
-19.479
-18.107
-16.779
-15.504
-14.289
-13.141
-12.069
-11.08
-10.179
-9.375
-8.673
-8.08
-7.601
-7.243
-7.009
-6.905
-6.934
-7.1
-7.407
-7.856
-8.449
-9.187
-10.072
-11.101
-12.276
-13.593
-15.051
-16.646
-18.375
-20.233
-22.216
-24.317
-26.53
-28.848
-31.265
-33.771
-36.359
-39.02
-41.745
-44.523
-47.345
-50.202
-53.082
-55.975
-58.87
-61.757
-64.625
-67.463
-70.261
-73.009
-75.696
-78.313
-80.852
-83.302
-85.656
-87.906
-90.046
-92.068
-93.967
-95.739
-97.377
-98.88
-100.244
-101.467
-102.547
-103.484
-104.279
-104.932
-105.444
-105.819
-106.059
-106.169
-106.151
-106.012
-105.756
-105.39
-104.92
-104.352
-103.694
-102.954
-102.138
-101.254
-100.311
-99.315
-98.276
-97.2
-96.096
-94.97
-93.829
-92.681
-91.532
-90.388
-89.255
-88.14
-87.047
-85.982
-84.947
-83.949
-82.989
-82.072
-81.198
-80.372
-79.593
-78.865
-78.186
-77.56
-76.984
-76.461
-75.989
-75.567
-75.196
-74.873
-74.598
-74.37
-74.186
-74.045
-73.946
-73.888
-73.869
-73.888
-73.944
-74.034
-74.158
-74.315
-74.503
-74.721
-74.968
-75.243
-75.546
-75.876
-76.232
-76.616
-77.026
-77.462
-77.925
-78.415
-78.932
-79.476
-80.048
-80.646
-81.271
-81.924
-82.605
-83.314
-84.05
-84.814
-85.605
-86.422
-87.266
-88.134
-89.024
-89.936
-90.868
-91.817
-92.783
-93.763
-94.755
-95.756
-96.764
-97.776
-98.789
-99.799
-100.803
-101.795
-102.774
-103.733
-104.67
-105.579
-106.457
-107.298
-108.1
-108.858
-109.569
-110.228
-110.831
-111.375
-111.856
-112.273
-112.622
-112.902
-113.111
-113.251
-113.322
-113.327
-113.266
-113.141
-112.955
-112.71
-112.409
-112.052
-111.642
-111.178
-110.664
-110.106
-109.507
-108.874
-108.211
-107.52
-106.809
-106.081
-105.342
-104.59
-103.826
-103.052
-102.275
-101.508
-100.762
-100.042
-99.35
-98.69
-98.058
-97.452
-96.86
-96.259
-95.629
-94.949
-94.208
-93.402
-92.521
-91.546
-90.451
-89.204
-87.784
-86.184
-84.394
-82.401
-80.218
-77.87
-75.406
-72.899
-70.39
-67.917
-65.525
-63.263
-61.197
-59.394
-57.892
-56.752
-56.077
-55.894
-56.164
-56.761
-57.372
-57.729
-57.647
-56.825
-54.919
-51.795
-47.514
-42.447
-37.436
-33.071
-29.605
-27.666
-27.795
-30.005
-34.084
-38.19
-39.691
-37.688
-30.917
-19.386
-3.188
20.827
53.086
94.604
146.127
204.295
269.769
339.675
406.453
463.074
497.191
501.184
475.726
424.013
354.256
274.906
191.995
114.085
51.176
9.594
-8.407
-7.511
1.161
9.936
15.3
17.483
20.746
26.204
32.404
37.792
39.998
38.524
34.578
29.213
23.704
19.238
16.241
14.855
15.063
16.482
18.67
21.26
23.808
25.868
27.225
27.789
27.556
26.652
25.186
23.241
20.938
18.395
15.708
12.961
10.226
7.569
5.065
2.775
0.74
-1.012
-2.477
-3.648
-4.529
-5.136
-5.492
-5.622
-5.551
-5.296
-4.88
-4.335
-3.694
-3.001
-2.286
-1.568
-0.863
-0.178
0.485
1.125
1.749
2.372
3.007
3.663
4.349
5.07
5.832
6.648
7.528
8.484
9.525
10.659
11.892
13.233
14.686
16.257
17.945
19.752
21.677
23.723
25.893
28.186
30.605
33.148
35.817
38.611
41.529
44.567
47.723
50.99
54.363
57.837
61.405
65.061
68.796
72.603
76.475
80.403
84.379
88.392
92.433
96.491
100.555
104.614
108.655
112.669
116.643
120.565
124.427
128.216
131.923
135.538
139.05
142.45
145.726
148.87
151.872
154.721
157.409
159.927
162.268
164.428
166.401
168.181
169.765
171.148
172.329
173.303
174.067
174.614
174.941
175.046
174.929
174.591
174.035
173.266
172.286
171.106
169.735
168.18
166.448
164.539
162.454
160.196
157.782
155.23
152.56
149.788
146.935
144.026
141.091
138.154
135.228
132.313
129.406
126.51
123.641
120.825
118.089
115.451
112.919
110.49
108.166
105.947
103.826
101.773
99.748
97.721
95.688
93.675
91.72
89.853
88.094
86.451
84.934
83.567
82.382
81.42
80.714
80.293
80.197
80.491
81.263
82.587
84.512
87.031
90.116
93.73
97.832
102.384
107.328
112.584
118.06
123.652
129.269
134.831
140.257
145.441
150.253
154.565
158.259
161.275
163.58
165.157
166.007
166.13
165.564
164.374
162.65
160.495
157.993
155.206
152.191
149.02
145.778
142.56
139.459
136.527
133.801
131.312
129.088
127.151
125.493
124.071
122.817
121.657
120.539
119.431
118.302
117.119
115.849
114.467
112.964
111.349
109.626
107.786
105.809
103.678
101.399
99.008
96.554
94.079
91.616
89.189
86.837
84.605
82.512
80.542
78.643
76.756
74.85
72.91
70.939
68.934
66.875
64.73
62.469
60.077
57.536
54.817
51.865
48.62
45.056
41.201
37.122
32.887
28.536
24.095
19.579
15.019
10.451
5.907
1.404
-3.051
-7.438
-11.719
-15.833
-19.714
-23.325
-26.67
-29.779
-32.681
-35.383
-37.888
-40.201
-42.335
-44.305
-46.113
-47.747
-49.191
-50.445
-51.52
-52.441
-53.237
-53.921
-54.493
-54.943
-55.269
-55.473
-55.561
-55.536
-55.397
-55.15
-54.806
-54.39
-53.923
-53.422
-52.9
-52.367
-51.833
-51.315
-50.827
-50.387
-50.01
-49.709
-49.499
-49.396
-49.416
-49.571
-49.87
-50.319
-50.924
-51.69
-52.621
-53.72
-54.988
-56.424
-58.026
-59.791
-61.713
-63.785
-65.998
-68.341
-70.803
-73.373
-76.038
-78.785
-81.602
-84.478
-87.398
-90.347
-93.31
-96.267
-99.199
-102.09
-104.916
-107.657
-110.294
-112.805
-115.176
-117.393
-119.44
-121.304
-122.967
-124.411
-125.621
-126.59
-127.313
-127.784
-128.007
-127.986
-127.737
-127.29
-126.666
-125.877
-124.929
-123.821
-122.549
-121.12
-119.533
-117.792
-115.897
-113.838
-111.614
-109.23
-106.68
-103.951
-101.014
-97.812
-94.307
-90.495
-86.379
-81.987
-77.351
-72.494
-67.45
-62.276
-57.03
-51.778
-46.583
-41.481
-36.531
-31.804
-27.396
-23.443
-20.051
-17.282
-15.178
-13.763
-13.056
-13.082
-13.856
-15.334
-17.459
-20.169
-23.403
-27.126
-31.28
-35.774
-40.484
-45.25
-49.941
-54.466
-58.748
-62.706
-66.245
-69.268
-71.691
-73.499
-74.706
-75.322
-75.352
-74.785
-73.631
-71.94
-69.805
-67.331
-64.585
-61.627
-58.515
-55.339
-52.227
-49.295
-46.641
-44.306
-42.308
-40.68
-39.469
-38.733
-38.503
-38.779
-39.533
-40.743
-42.424
-44.573
-47.163
-50.129
-53.378
-56.833
-60.43
-64.124
-67.862
-71.557
-75.138
-78.52
-81.607
-84.393
-86.92
-89.25
-91.55
-93.982
-96.552
-99.31
-102.301
-105.315
-108.13
-110.428
-111.609
-111.319
-109.623
-106.657
-102.766
-98.589
-94.622
-91.523
-90.304
-91.533
-95.305
-101.51
-109.627
-118.965
-129.095
-139.396
-148.904
-156.994
-163.17
-167.03
-168.646
-168.062
-164.895
-158.767
-149.465
-136.575
-119.787
-98.783
-72.613
-40.16
-1.681
41.027
86.206
131.847
177.771
227.389
281.846
338.094
390.334
427.083
436.593
414.992
361.797
281.345
186.23
87.064
-4.407
-74.144
-117.224
-133.163
-126.665
-109.203
-90.489
-78.039
-75.563
-83.163
-97.965
-114.568
-129.555
-140.119
-145.904
-149.952
-153.607
-157.39
-161.166
-163.194
-162.792
-160.306
-156.124
-151.008
-145.604
-140.261
-135.281
-130.875
-127.121
-123.995
-121.478
-119.564
-118.198
-117.315
-116.833
-116.659
-116.73
-117.016
-117.465
-117.985
-118.475
-118.832
-118.958
-118.805
-118.34
-117.537
-116.388
-114.903
-113.1
-111.016
-108.698
-106.185
-103.518
-100.734
-97.868
-94.966
-92.075
-89.244
-86.519
-83.933
-81.507
-79.257
-77.192
-75.315
-73.626
-72.116
-70.772
-69.584
-68.544
-67.642
-66.873
-66.226
-65.688
-65.246
-64.884
-64.591
-64.351
-64.154
-63.983
-63.827
-63.671
-63.504
-63.313
-63.085
-62.805
-62.457
-62.026
-61.494
-60.849
-60.073
-59.154
-58.075
-56.826
-55.394
-53.77
-51.943
-49.906
-47.652
-45.174
-42.47
-39.534
-36.368
-32.97
-29.343
-25.491
-21.419
-17.133
-12.644
-7.962
-3.099
1.931
7.114
12.431
17.864
23.395
29.002
34.664
40.357
46.058
51.742
57.385
62.962
68.445
73.812
79.035
84.089
88.952
93.598
98.006
102.152
106.017
109.581
112.826
115.735
118.293
120.489
122.31
123.749
124.799
125.455
125.715
125.579
125.05
124.131
122.829
121.153
119.113
116.721
113.992
110.942
107.588
103.949
100.046
95.9
91.533
86.97
82.233
77.348
72.337
67.227
62.042
56.805
51.541
46.272
41.021
35.807
30.653
25.575
20.591
15.717
10.966
6.351
1.881
-2.435
-6.589
-10.577
-14.396
-18.043
-21.519
-24.824
-27.963
-30.939
-33.758
-36.427
-38.953
-41.346
-43.614
-45.769
-47.821
-49.78
-51.658
-53.465
-55.214
-56.915
-58.577
-60.212
-61.827
-63.432
-65.034
-66.639
-68.253
-69.881
-71.524
-73.184
-74.863
-76.559
-78.27
-79.992
-81.722
-83.455
-85.183
-86.899
-88.596
-90.264
-91.894
-93.474
-94.995
-96.446
-97.814
-99.089
-100.259
-101.312
-102.239
-103.029
-103.671
-104.157
-104.477
-104.624
-104.591
-104.371
-103.96
-103.354
-102.549
-101.546
-100.344
-98.945
-97.35
-95.565
-93.595
-91.445
-89.124
-86.641
-84.004
-81.224
-78.313
-75.283
-72.149
-68.923
-65.621
-62.258
-58.85
-55.413
-51.962
-48.513
-45.083
-41.687
-38.34
-35.058
-31.855
-28.746
-25.745
-22.865
-20.119
-17.518
-15.072
-12.79
-10.681
-8.75
-7.004
-5.445
-4.077
-2.901
-1.918
-1.128
-0.529
-0.119
0.107
0.153
0.028
-0.262
-0.707
-1.296
-2.018
-2.86
-3.812
-4.859
-5.987
-7.183
-8.433
-9.721
-11.031
-12.348
-13.654
-14.934
-16.17
-17.346
-18.446
-19.458
-20.366
-21.159
-21.825
-22.354
-22.738
-22.967
-23.034
-22.929
-22.647
-22.178
-21.518
-20.663
-19.609
-18.356
-16.906
-15.263
-13.434
-11.428
-9.253
-6.919
-4.433
-1.805
0.955
3.837
6.834
9.933
13.119
16.375
19.674
22.992
26.314
29.627
32.925
36.21
39.479
42.733
45.982
49.227
52.459
55.663
58.802
61.839
64.75
67.517
70.137
72.61
74.922
77.059
79.007
80.731
82.199
83.368
84.17
84.547
84.476
83.949
83.004
81.701
80.088
78.209
76.103
73.807
71.365
68.813
66.178
63.505
60.853
58.3
55.973
53.989
52.431
51.365
50.802
50.715
51.076
51.842
52.949
54.33
55.926
57.692
59.598
61.616
63.692
65.737
67.617
69.194
70.34
70.935
70.907
70.206
68.81
66.731
64.02
60.75
56.977
52.744
48.077
43
37.567
31.877
26.069
20.295
14.732
9.553
4.903
0.939
-2.221
-4.492
-5.826
-6.202
-5.591
-3.946
-1.201
2.683
7.713
13.834
20.944
28.926
37.614
46.844
56.461
66.271
76.09
85.759
95.13
104.064
112.421
120.025
126.666
132.191
136.491
139.518
141.289
141.831
141.202
139.475
136.727
133.068
128.624
123.511
117.841
111.747
105.367
98.879
92.51
86.417
80.702
75.425
70.577
66.151
62.131
58.471
55.119
52.022
49.131
46.416
43.846
41.353
38.864
36.284
33.493
30.461
27.191
23.668
20
16.37
13.015
10.321
8.644
8.193
9.23
12.088
16.856
23.495
31.756
40.974
50.656
60.535
70.081
78.744
86.464
93.452
100.472
109.04
120.278
135.178
155.399
182.503
217.558
259.956
306.872
355.33
402.68
449.707
499.985
552.278
603.214
644.277
660.125
643.997
593.746
511.38
412.197
309.255
215.129
145.573
103.909
88.274
92.237
101.251
107.41
108.203
104.246
101.06
100.465
101.132
101.608
99.44
94.226
87.41
80.135
73.763
69.441
67.505
68.137
71.345
76.765
83.981
92.617
102.168
112.115
122.139
132.004
141.597
150.955
160.076
168.936
177.541
185.893
193.967
201.709
209.002
215.687
221.659
226.857
231.277
234.947
237.887
240.121
241.67
242.552
242.811
242.496
241.65
240.305
238.5
236.306
233.853
231.312
228.811
226.435
224.223
222.208
220.458
219.028
217.96
217.265
216.926
216.931
217.283
217.998
219.08
220.502
222.188
224.05
226.039
228.138
230.357
232.677
235.035
237.38
239.682
241.944
244.186
246.411
248.6
250.733
252.806
254.83
256.836
258.843
260.839
262.801
264.694
266.512
268.286
270.035
271.758
273.442
275.063
276.614
278.1
279.516
280.842
282.053
283.12
284.028
284.779
285.372
285.81
286.078
286.15
286.006
285.632
285.017
284.152
283.025
281.615
279.916
277.929
275.655
273.099
270.258
267.126
263.703
259.99
255.99
251.71
247.156
242.336
237.258
231.933
226.375
220.596
214.611
208.431
202.069
195.539
188.855
182.035
175.093
168.045
160.908
153.699
146.435
139.134
131.812
124.485
117.17
109.882
102.637
95.451
88.337
81.309
74.38
67.564
60.872
54.314
47.9
41.638
35.535
29.598
23.832
18.239
12.822
7.581
2.513
-2.386
-7.121
-11.7
-16.129
-20.419
-24.579
-28.619
-32.55
-36.38
-40.122
-43.787
-47.389
-50.943
-54.466
-57.975
-61.487
-65.023
-68.6
-72.241
-75.961
-79.777
-83.704
-87.755
-91.949
-96.306
-100.84
-105.558
-110.467
-115.567
-120.855
-126.326
-131.966
-137.75
-143.654
-149.655
-155.73
-161.873
-168.079
-174.337
-180.637
-186.963
-193.311
-199.698
-206.144
-212.665
-219.286
-226.025
-232.91
-240
-247.335
-254.941
-262.84
-271.016
-279.441
-288.098
-296.963
-306.004
-315.175
-324.384
-333.519
-342.484
-351.172
-359.481
-367.297
-374.465
-380.862
-386.393
-390.982
-394.599
-397.233
-398.856
-399.454
-399.03
-397.598
-395.239
-392.073
-388.2
-383.746
-378.839
-373.626
-368.304
-363.043
-357.968
-353.188
-348.772
-344.775
-341.28
-338.361
-336.075
-334.483
-333.59
-333.36
-333.775
-334.784
-336.321
-338.302
-340.593
-343.08
-345.688
-348.36
-351.063
-353.767
-356.419
-358.966
-361.368
-363.567
-365.532
-367.254
-368.71
-369.901
-370.848
-371.581
-372.162
-372.646
-373.056
-373.401
-373.682
-373.888
-374.027
-374.099
-374.099
-374.032
-373.902
-373.705
-373.45
-373.128
-372.724
-372.216
-371.57
-370.755
-369.754
-368.558
-367.162
-365.567
-363.775
-361.79
-359.625
-357.287
-354.782
-352.118
-349.299
-346.331
-343.228
-340.004
-336.676
-333.262
-329.779
-326.242
-322.665
-319.063
-315.447
-311.829
-308.216
-304.617
-301.041
-297.499
-293.999
-290.552
-287.166
-283.848
-280.606
-277.446
-274.372
-271.387
-268.493
-265.691
-262.982
-260.363
-257.835
-255.393
-253.036
-250.758
-248.555
-246.421
-244.349
-242.332
-240.361
-238.427
-236.522
-234.635
-232.757
-230.879
-228.991
-227.081
-225.142
-223.164
-221.138
-219.055
-216.907
-214.685
-212.381
-209.989
-207.502
-204.915
-202.223
-199.422
-196.511
-193.49
-190.362
-187.126
-183.788
-180.349
-176.817
-173.196
-169.494
-165.713
-161.86
-157.943
-153.97
-149.953
-145.904
-141.831
-137.745
-133.659
-129.583
-125.53
-121.506
-117.517
-113.57
-109.673
-105.843
-102.098
-98.455
-94.924
-91.515
-88.235
-85.088
-82.076
-79.19
-76.411
-73.723
-71.115
-68.58
-66.119
-63.721
-61.368
-59.039
-56.706
-54.348
-51.952
-49.499
-46.985
-44.422
-41.835
-39.263
-36.753
-34.343
-32.073
-29.997
-28.158
-26.61
-25.396
-24.563
-24.215
-24.402
-25.093
-26.182
-27.407
-28.465
-29.141
-29.18
-28.227
-26.123
-22.934
-18.978
-15.051
-11.972
-10.265
-10.452
-13.046
-18.146
-25.332
-33.53
-40.787
-45.056
-44.574
-37.448
-21.77
4.09
39.965
83.477
131.584
180.713
230.547
284.232
340.875
397.133
444.755
468.56
460.48
418.62
345.37
253.277
154.158
57.816
-23.264
-80.088
-108.085
-106.646
-82.304
-48.472
-17.527
2.69
8.029
3.026
-4.643
-10.914
-12.265
-9.665
-7.434
-6.839
-8.293
-11.029
-12.639
-12.341
-10.397
-7.115
-3.238
0.707
4.487
7.762
10.288
12.015
12.99
13.315
13.085
12.379
11.273
9.866
8.261
6.536
4.76
3.019
1.382
-0.092
-1.36
-2.407
-3.226
-3.81
-4.165
-4.317
-4.287
-4.103
-3.786
-3.347
-2.812
-2.214
-1.589
-0.985
-0.433
0.048
0.444
0.747
0.956
1.072
1.106
1.079
1.008
0.906
0.786
0.657
0.535
0.438
0.386
0.396
0.486
0.673
0.974
1.405
1.981
2.715
3.62
4.706
5.983
7.465
9.163
11.09
13.256
15.673
18.348
21.293
24.514
28.018
31.807
35.885
40.253
44.909
49.851
55.075
60.574
66.339
72.361
78.628
85.125
91.837
98.746
105.833
113.076
120.455
127.944
135.52
143.154
150.821
158.493
166.141
173.735
181.246
188.643
195.898
202.98
209.858
216.503
222.887
228.979
234.754
240.183
245.243
249.91
254.161
257.977
261.339
264.231
266.639
268.552
269.96
270.855
271.233
271.093
270.434
269.259
267.573
265.386
262.705
259.545
255.92
251.847
247.344
242.432
237.133
231.472
225.472
219.163
212.57
205.724
198.655
191.393
183.969
176.416
168.764
161.046
153.293
145.534
137.802
130.124
122.529
115.045
107.696
100.508
93.503
86.703
80.126
73.79
67.71
61.901
56.373
51.137
46.199
41.566
37.242
33.228
29.524
26.129
23.041
20.253
17.76
15.553
13.623
11.959
10.55
9.383
8.445
7.72
7.195
6.854
6.682
6.662
6.78
7.019
7.364
7.801
8.314
8.89
9.516
10.179
10.866
11.569
12.275
12.977
13.667
14.336
14.979
15.59
16.166
16.701
17.195
17.645
18.05
18.411
18.729
19.004
19.24
19.439
19.605
19.74
19.85
19.938
20.009
20.068
20.12
20.169
20.22
20.278
20.346
20.43
20.532
20.656
20.805
20.981
21.188
21.426
21.698
22.005
22.348
22.727
23.143
23.594
24.081
24.602
25.156
25.742
26.357
26.999
27.667
28.356
29.065
29.791
30.531
31.281
32.039
32.801
33.565
34.327
35.085
35.835
36.576
37.304
38.018
38.716
39.394
40.051
40.684
41.292
41.873
42.423
42.942
43.428
43.877
44.289
44.66
44.99
45.276
45.516
45.707
45.847
45.935
45.967
45.942
45.858
45.712
45.502
45.226
44.883
44.47
43.985
43.427
42.793
42.082
41.293
40.423
39.473
38.441
37.328
36.133
34.856
33.5
32.065
30.552
28.965
27.306
25.578
23.784
21.929
20.018
18.056
16.047
14
11.919
9.811
7.683
5.543
3.396
1.252
-0.884
-3.004
-5.1
-7.164
-9.19
-11.169
-13.094
-14.958
-16.755
-18.479
-20.123
-21.682
-23.152
-24.529
-25.807
-26.985
-28.059
-29.027
-29.887
-30.639
-31.283
-31.819
-32.248
-32.571
-32.793
-32.915
-32.941
-32.874
-32.718
-32.478
-32.159
-31.764
-31.299
-30.768
-30.177
-29.532
-28.837
-28.1
-27.325
-26.516
-25.681
-24.823
-23.948
-23.06
-22.164
-21.262
-20.361
-19.463
-18.572
-17.691
-16.822
-15.969
-15.134
-14.319
-13.526
-12.755
-12.009
-11.287
-10.593
-9.926
-9.289
-8.682
-8.108
-7.57
-7.071
-6.615
-6.205
-5.843
-5.535
-5.282
-5.089
-4.957
-4.886
-4.877
-4.932
-5.054
-5.245
-5.508
-5.843
-6.251
-6.733
-7.293
-7.928
-8.634
-9.405
-10.237
-11.132
-12.098
-13.139
-14.254
-15.441
-16.696
-18.013
-19.381
-20.781
-22.181
-23.552
-24.863
-26.093
-27.232
-28.262
-29.158
-29.887
-30.408
-30.691
-30.725
-30.493
-29.976
-29.18
-28.124
-26.862
-25.478
-24.03
-22.563
-21.13
-19.772
-18.556
-17.568
-16.867
-16.515
-16.61
-17.186
-18.215
-19.628
-21.154
-22.443
-23.217
-23.158
-21.887
-19.224
-15.211
-10.096
-4.613
0.301
4.076
6.33
6.44
4.045
-0.423
-6.232
-11.091
-11.036
-4.198
10.024
31.743
57.594
86.706
122.314
166.557
224.541
298.609
382.795
469.205
545.137
597.663
619.731
606.581
559.417
482.414
381.336
267.796
154.627
57.302
-10.132
-44.221
-49.041
-36.631
-21.761
-11.568
-7.756
-7.386
-5.547
-1.827
2.041
4.057
2.027
-3.883
-12.146
-21.503
-30.425
-37.749
-43.169
-46.614
-48.308
-48.805
-48.599
-48.101
-47.773
-48.002
-48.958
-50.689
-53.123
-56.077
-59.404
-62.977
-66.662
-70.328
-73.86
-77.15
-80.095
-82.62
-84.666
-86.183
-87.147
-87.543
-87.37
-86.642
-85.387
-83.642
-81.445
-78.833
-75.84
-72.507
-68.885
-65.033
-61.016
-56.886
-52.686
-48.447
-44.198
-39.961
-35.754
-31.583
-27.45
-23.353
-19.298
-15.289
-11.335
-7.439
-3.6
0.184
3.916
7.599
11.233
14.821
18.365
21.868
25.333
28.761
32.152
35.51
38.84
42.149
45.446
48.739
52.036
55.346
58.68
62.048
65.457
68.915
72.43
76.008
79.656
83.378
87.18
91.064
95.033
99.088
103.231
107.46
111.773
116.168
120.639
125.181
129.787
134.45
139.159
143.905
148.677
153.461
158.246
163.017
167.759
172.458
177.096
181.658
186.127
190.484
194.712
198.794
202.712
206.449
209.988
213.314
216.412
219.267
221.867
224.2
226.254
228.02
229.488
230.652
231.506
232.044
232.265
232.166
231.749
231.015
229.969
228.617
226.965
225.022
222.799
220.308
217.561
214.57
211.349
207.912
204.276
200.457
196.47
192.334
188.068
183.693
179.231
174.704
170.132
165.535
160.929
156.334
151.767
147.244
142.775
138.374
134.055
129.833
125.732
121.762
117.928
114.229
110.654
107.196
103.851
100.606
97.441
94.345
91.312
88.348
85.476
82.705
80.031
77.442
74.911
72.424
69.984
67.596
65.268
63.01
60.823
58.73
56.771
54.959
53.283
51.701
50.134
48.526
46.847
45.074
43.199
41.205
39.052
36.713
34.165
31.379
28.327
24.956
21.185
16.974
12.325
7.275
1.913
-3.698
-9.522
-15.522
-21.667
-27.923
-34.243
-40.595
-46.967
-53.327
-59.64
-65.846
-71.855
-77.615
-83.109
-88.343
-93.358
-98.183
-102.821
-107.286
-111.59
-115.743
-119.754
-123.617
-127.308
-130.819
-134.15
-137.314
-140.342
-143.247
-146.028
-148.676
-151.168
-153.49
-155.636
-157.595
-159.354
-160.907
-162.251
-163.395
-164.355
-165.145
-165.771
-166.238
-166.547
-166.702
-166.712
-166.585
-166.328
-165.95
-165.46
-164.868
-164.184
-163.421
-162.587
-161.691
-160.739
-159.738
-158.695
-157.617
-156.511
-155.383
-154.238
-153.08
-151.914
-150.746
-149.583
-148.432
-147.299
-146.19
-145.114
-144.077
-143.086
-142.149
-141.268
-140.443
-139.676
-138.969
-138.329
-137.766
-137.286
-136.89
-136.578
-136.348
-136.197
-136.114
-136.083
-136.073
-136.055
-136.008
-135.926
-135.809
-135.662
-135.488
-135.288
-135.068
-134.843
-134.637
-134.467
-134.349
-134.296
-134.332
-134.499
-134.863
-135.486
-136.407
-137.647
-139.198
-141.048
-143.177
-145.553
-148.13
-150.828
-153.558
-156.241
-158.809
-161.205
-163.368
-165.216
-166.641
-167.547
-167.856
-167.518
-166.516
-164.84
-162.493
-159.492
-155.884
-151.768
-147.262
-142.485
-137.538
-132.495
-127.429
-122.425
-117.582
-112.995
-108.74
-104.875
-101.433
-98.451
-95.957
-93.977
-92.514
-91.511
-90.889
-90.549
-90.415
-90.435
-90.57
-90.778
-91.005
-91.21
-91.357
-91.427
-91.411
-91.283
-91.016
-90.571
-89.922
-89.079
-88.077
-86.972
-85.803
-84.595
-83.36
-82.113
-80.874
-79.654
-78.453
-77.263
-76.074
-74.889
-73.721
-72.594
-71.527
-70.526
-69.584
-68.683
-67.813
-66.968
-66.148
-65.347
-64.563
-63.795
-63.053
-62.355
-61.719
-61.156
-60.673
-60.273
-59.961
-59.743
-59.628
-59.623
-59.733
-59.964
-60.324
-60.822
-61.466
-62.262
-63.21
-64.31
-65.559
-66.957
-68.498
-70.175
-71.979
-73.903
-75.948
-78.118
-80.415
-82.836
-85.375
-88.023
-90.768
-93.597
-96.487
-99.403
-102.312
-105.178
-107.975
-110.683
-113.276
-115.72
-117.978
-120.002
-121.763
-123.241
-124.416
-125.282
-125.847
-126.126
-126.167
-126.037
-125.8
-125.531
-125.31
-125.208
-125.313
-125.711
-126.486
-127.755
-129.567
-131.886
-134.607
-137.518
-140.368
-142.928
-144.933
-146.056
-146.082
-144.986
-143.021
-140.687
-138.548
-137.124
-136.765
-137.726
-140.318
-144.462
-149.22
-153.422
-154.896
-150.305
-138.257
-118.082
-89.903
-57.783
-23.483
15.053
59.382
115.053
186.125
267.255
350.212
422.61
467.649
475.619
443.516
372.082
272.032
158.183
43.128
-56.855
-128.716
-167.433
-171.343
-149.465
-118.855
-94.158
-85.994
-95.763
-114.622
-131.724
-139.97
-137.272
-127.443
-116.986
-109.384
-105.41
-103.913
-102.065
-98.315
-92.544
-84.911
-76.016
-66.394
-56.234
-45.794
-35.461
-25.572
-16.356
-7.975
-0.503
6.091
11.854
16.838
21.132
24.785
27.801
30.22
32.112
33.565
34.675
35.504
36.084
36.468
36.728
36.952
37.231
37.613
38.112
38.749
39.548
40.555
41.829
43.392
45.236
47.341
49.686
52.265
55.082
58.115
61.32
64.644
68.026
71.433
74.852
78.265
81.656
84.998
88.263
91.44
94.538
97.563
100.52
103.413
106.241
109.019
111.775
114.542
117.353
120.232
123.191
126.246
129.408
132.687
136.093
139.628
143.285
147.062
150.958
154.972
159.102
163.344
167.684
172.113
176.618
181.186
185.806
190.467
195.154
199.855
204.556
209.246
213.911
218.538
223.107
227.602
232.001
236.285
240.432
244.421
248.23
251.838
255.222
258.363
261.239
263.831
266.119
268.084
269.708
270.975
271.867
272.37
272.472
272.159
271.423
270.254
268.645
266.591
264.088
261.135
257.732
253.88
249.585
244.851
239.688
234.107
228.12
221.742
214.992
207.887
200.448
192.699
184.664
176.367
167.836
159.098
150.183
141.119
131.937
122.668
113.342
103.99
94.645
85.335
76.093
66.948
57.928
49.064
40.381
31.906
23.664
15.68
7.974
0.568
-6.52
-13.273
-19.676
-25.718
-31.387
-36.676
-41.578
-46.088
-50.206
-53.93
-57.263
-60.207
-62.77
-64.957
-66.777
-68.242
-69.362
-70.152
-70.625
-70.796
-70.683
-70.303
-69.672
-68.81
-67.736
-66.469
-65.028
-63.433
-61.704
-59.859
-57.919
-55.902
-53.827
-51.71
-49.569
-47.42
-45.279
-43.16
-41.075
-39.039
-37.063
-35.157
-33.332
-31.596
-29.958
-28.425
-27.004
-25.699
-24.515
-23.455
-22.522
-21.718
-21.043
-20.499
-20.084
-19.797
-19.637
-19.602
-19.687
-19.891
-20.207
-20.632
-21.161
-21.788
-22.507
-23.313
-24.199
-25.16
-26.189
-27.281
-28.427
-29.624
-30.862
-32.137
-33.441
-34.768
-36.11
-37.462
-38.817
-40.168
-41.511
-42.838
-44.145
-45.426
-46.675
-47.89
-49.064
-50.193
-51.276
-52.307
-53.285
-54.208
-55.074
-55.883
-56.634
-57.328
-57.963
-58.543
-59.067
-59.536
-59.954
-60.321
-60.64
-60.915
-61.148
-61.342
-61.501
-61.63
-61.731
-61.809
-61.868
-61.912
-61.945
-61.97
-61.991
-62.013
-62.037
-62.068
-62.107
-62.158
-62.222
-62.299
-62.39
-62.494
-62.611
-62.738
-62.873
-63.013
-63.155
-63.293
-63.423
-63.539
-63.637
-63.709
-63.748
-63.747
-63.699
-63.595
-63.429
-63.19
-62.872
-62.467
-61.965
-61.36
-60.644
-59.809
-58.849
-57.756
-56.526
-55.151
-53.629
-51.955
-50.127
-48.142
-46.001
-43.705
-41.256
-38.656
-35.91
-33.025
-30.008
-26.865
-23.609
-20.248
-16.795
-13.263
-9.665
-6.018
-2.335
1.365
5.067
8.752
12.404
16.003
19.532
22.972
26.304
29.51
32.573
35.474
38.196
40.724
43.04
45.132
46.985
48.588
49.93
51.001
51.794
52.303
52.524
52.454
52.093
51.443
50.507
49.29
47.799
46.044
44.035
41.784
39.305
36.613
33.725
30.66
27.435
24.072
20.591
17.016
13.369
9.673
5.953
2.232
-1.466
-5.116
-8.695
-12.179
-15.546
-18.774
-21.841
-24.727
-27.414
-29.884
-32.121
-34.112
-35.843
-37.305
-38.489
-39.389
-40.001
-40.323
-40.354
-40.095
-39.552
-38.729
-37.634
-36.276
-34.666
-32.819
-30.75
-28.478
-26.022
-23.402
-20.64
-17.758
-14.78
-11.729
-8.628
-5.498
-2.363
0.753
3.826
6.831
9.747
12.551
15.223
17.744
20.096
22.264
24.238
26.01
27.571
28.907
29.999
30.834
31.405
31.706
31.737
31.499
30.995
30.24
29.26
28.081
26.731
25.23
23.594
21.841
20.006
18.132
16.269
14.461
12.739
11.13
9.659
8.342
7.18
6.152
5.215
4.32
3.422
2.48
1.439
0.243
-1.175
-2.905
-5.056
-7.695
-10.821
-14.325
-18.008
-21.638
-24.967
-27.727
-29.606
-30.34
-29.884
-28.556
-26.943
-25.753
-25.7
-27.229
-30.639
-36.35
-44.422
-53.896
-63.404
-70.438
-71.218
-64.019
-48.073
-23.161
7.248
41.564
81.736
129.219
189.246
265.942
354.749
446.421
526.414
577.413
588.608
558.296
490.849
395.367
284.449
168.791
60.147
-26.718
-82.853
-105.827
-100.529
-81.28
-61.725
-48.864
-44.482
-44.715
-44.839
-44.093
-43.57
-45.012
-49.949
-57.701
-66.589
-75.098
-81.873
-86.418
-88.853
-89.456
-88.732
-87.24
-85.494
-84.021
-83.255
-83.398
-84.494
-86.484
-89.215
-92.553
-96.358
-100.469
-104.731
-108.993
-113.128
-117.022
-120.549
-123.608
-126.117
-128.012
-129.26
-129.847
-129.764
-129.016
-127.628
-125.621
-123.024
-119.869
-116.183
-112.005
-107.387
-102.381
-97.05
-91.446
-85.605
-79.563
-73.346
-66.975
-60.471
-53.848
-47.111
-40.27
-33.339
-26.333
-19.277
-12.194
-5.101
1.992
9.077
16.149
23.204
30.239
37.26
44.281
51.313
58.362
65.43
72.5
79.557
86.593
93.597
100.566
107.484
114.318
121.029
127.589
133.96
140.108
145.986
151.512
156.627
161.287
165.466
169.18
172.45
175.29
177.726
179.796
181.548
183.067
184.44
185.723
186.978
188.278
189.706
191.397
193.455
195.944
198.912
202.367
206.303
210.733
215.648
221.004
226.759
232.847
239.196
245.784
252.57
259.486
266.451
273.336
280.035
286.486
292.629
298.413
303.794
308.712
313.118
317.005
320.334
323.05
325.109
326.415
326.906
326.558
325.352
323.296
320.396
316.622
311.959
306.413
299.972
292.641
284.427
275.31
265.334
254.592
243.173
231.206
218.792
206.006
192.944
179.699
166.357
153.035
139.838
126.862
114.241
102.105
90.57
79.77
69.77
60.589
52.245
44.733
38.05
32.199
27.156
22.881
19.343
16.49
14.26
12.581
11.334
10.398
9.669
9.032
8.411
7.76
7.025
6.172
5.178
4.016
2.679
1.17
-0.522
-2.394
-4.434
-6.616
-8.885
-11.19
-13.497
-15.771
-17.992
-20.152
-22.24
-24.261
-26.232
-28.166
-30.084
-32.005
-33.943
-35.911
-37.933
-40.034
-42.247
-44.599
-47.108
-49.787
-52.645
-55.686
-58.913
-62.319
-65.889
-69.61
-73.467
-77.447
-81.54
-85.729
-90
-94.334
-98.714
-103.123
-107.545
-111.965
-116.368
-120.739
-125.066
-129.335
-133.537
-137.662
-141.696
-145.63
-149.451
-153.148
-156.713
-160.135
-163.406
-166.519
-169.467
-172.245
-174.851
-177.281
-179.534
-181.609
-183.508
-185.232
-186.783
-188.166
-189.385
-190.445
-191.352
-192.113
-192.735
-193.225
-193.592
-193.844
-193.988
-194.035
-193.992
-193.869
-193.676
-193.42
-193.112
-192.76
-192.374
-191.963
-191.534
-191.096
-190.657
-190.223
-189.802
-189.399
-189.018
-188.665
-188.343
-188.055
-187.803
-187.589
-187.414
-187.279
-187.184
-187.128
-187.11
-187.129
-187.183
-187.27
-187.387
-187.531
-187.699
-187.888
-188.094
-188.313
-188.543
-188.777
-189.013
-189.245
-189.469
-189.68
-189.874
-190.046
-190.191
-190.305
-190.385
-190.426
-190.425
-190.379
-190.285
-190.141
-189.943
-189.689
-189.378
-189.008
-188.578
-188.085
-187.53
-186.911
-186.229
-185.482
-184.67
-183.791
-182.845
-181.83
-180.746
-179.596
-178.379
-177.098
-175.751
-174.342
-172.871
-171.341
-169.753
-168.107
-166.4
-164.634
-162.811
-160.937
-159.016
-157.051
-155.04
-152.979
-150.866
-148.7
-146.479
-144.204
-141.87
-139.476
-137.025
-134.526
-131.988
-129.418
-126.82
-124.187
-121.509
-118.79
-116.041
-113.292
-110.575
-107.905
-105.276
-102.676
-100.1
-97.554
-95.061
-92.604
-90.118
-87.585
-85.079
-82.767
-80.836
-79.332
-78.098
-76.942
-75.807
-74.605
-73.118
-70.91
-67.441
-62.498
-56.372
-49.595
-42.509
-35.363
-28.475
-22.396
-17.878
-15.29
-14.329
-14.288
-14.614
-14.968
-15.078
-14.554
-12.792
-9.433
-4.652
1.004
7.057
13.243
19.432
25.506
31.21
36.338
40.929
45.216
49.413
53.621
57.83
61.959
65.998
69.984
73.918
77.782
81.548
85.202
88.786
92.381
96.03
99.728
103.428
107.037
110.495
113.765
116.821
119.66
122.266
124.621
126.736
128.616
130.248
131.601
132.602
133.166
133.284
133.009
132.435
131.687
130.826
129.911
129.046
128.272
127.534
126.669
125.444
123.737
121.636
119.288
116.733
114.06
111.448
109.222
107.754
107.128
107.049
107.102
107.164
107.22
107.141
106.617
105.258
102.989
100.2
97.343
94.334
90.783
86.483
81.656
76.679
71.601
66.206
60.53
56.279
56.589
63.885
79.008
99.571
121.979
145.401
171.464
206.464
257.345
326.083
411.803
506.901
598.86
676.689
728.634
745.901
727.25
674.466
593.032
493.18
384.277
277.272
186.106
120.679
85.551
78.26
87.111
99.419
107.94
110.326
109.811
110.724
113.135
115.357
115.222
110.597
101.798
90.372
77.561
64.917
53.705
44.341
37
31.572
27.548
24.44
21.87
19.373
16.537
13.193
9.281
4.853
0.081
-4.903
-9.989
-15.05
-19.979
-24.693
-29.126
-33.23
-36.953
-40.235
-43.034
-45.327
-47.107
-48.388
-49.185
-49.518
-49.423
-48.942
-48.122
-47.008
-45.635
-44.046
-42.29
-40.424
-38.509
-36.601
-34.74
-32.962
-31.299
-29.774
-28.406
-27.21
-26.189
-25.348
-24.691
-24.225
-23.956
-23.888
-24.018
-24.342
-24.852
-25.543
-26.407
-27.436
-28.618
-29.943
-31.399
-32.975
-34.661
-36.444
-38.307
-40.235
-42.21
-44.213
-46.228
-48.235
-50.214
-52.149
-54.021
-55.814
-57.512
-59.1
-60.564
-61.892
-63.071
-64.091
-64.944
-65.622
-66.119
-66.43
-66.553
-66.487
-66.231
-65.789
-65.163
-64.358
-63.381
-62.239
-60.941
-59.497
-57.919
-56.218
-54.408
-52.503
-50.517
-48.467
-46.367
-44.235
-42.086
-39.938
-37.808
-35.71
-33.661
-31.677
-29.772
-27.96
-26.254
-24.668
-23.212
-21.897
-20.732
-19.727
-18.888
-18.222
-17.733
-17.425
-17.301
-17.362
-17.608
-18.037
-18.648
-19.437
-20.399
-21.53
-22.822
-24.268
-25.86
-27.587
-29.441
-31.411
-33.484
-35.65
-37.896
-40.209
-42.576
-44.986
-47.425
-49.881
-52.341
-54.794
-57.226
-59.627
-61.986
-64.292
-66.535
-68.705
-70.794
-72.794
-74.697
-76.497
-78.189
-79.766
-81.225
-82.562
-83.774
-84.858
-85.812
-86.636
-87.329
-87.891
-88.323
-88.626
-88.802
-88.854
-88.785
-88.596
-88.292
-87.876
-87.352
-86.723
-85.994
-85.17
-84.253
-83.25
-82.164
-81
-79.763
-78.456
-77.085
-75.653
-74.164
-72.621
-71.03
-69.393
-67.715
-65.998
-64.248
-62.467
-60.661
-58.833
-56.987
-55.128
-53.259
-51.386
-49.512
-47.642
-45.78
-43.932
-42.103
-40.298
-38.523
-36.782
-35.081
-33.425
-31.821
-30.273
-28.786
-27.366
-26.018
-24.747
-23.559
-22.459
-21.452
-20.544
-19.739
-19.041
-18.456
-17.987
-17.637
-17.409
-17.306
-17.329
-17.479
-17.757
-18.165
-18.7
-19.362
-20.149
-21.059
-22.088
-23.234
-24.491
-25.854
-27.319
-28.88
-30.531
-32.266
-34.077
-35.959
-37.904
-39.904
-41.951
-44.038
-46.156
-48.296
-50.449
-52.608
-54.763
-56.905
-59.026
-61.119
-63.174
-65.185
-67.144
-69.043
-70.877
-72.639
-74.323
-75.925
-77.439
-78.862
-80.19
-81.42
-82.55
-83.578
-84.501
-85.318
-86.029
-86.632
-87.128
-87.515
-87.796
-87.969
-88.038
-88.003
-87.868
-87.633
-87.303
-86.881
-86.37
-85.774
-85.097
-84.343
-83.518
-82.625
-81.67
-80.658
-79.594
-78.483
-77.33
-76.14
-74.917
-73.666
-72.393
-71.1
-69.794
-68.478
-67.157
-65.836
-64.519
-63.21
-61.914
-60.635
-59.377
-58.143
-56.936
-55.76
-54.618
-53.511
-52.443
-51.414
-50.426
-49.479
-48.575
-47.712
-46.891
-46.11
-45.369
-44.665
-43.996
-43.361
-42.757
-42.183
-41.635
-41.112
-40.611
-40.128
-39.662
-39.208
-38.765
-38.327
-37.892
-37.456
-37.015
-36.566
-36.107
-35.632
-35.141
-34.63
-34.096
-33.539
-32.955
-32.343
-31.702
-31.033
-30.335
-29.608
-28.856
-28.078
-27.278
-26.459
-25.625
-24.778
-23.924
-23.065
-22.205
-21.351
-20.505
-19.672
-18.858
-18.067
-17.308
-16.586
-15.911
-15.289
-14.728
-14.236
-13.82
-13.487
-13.241
-13.085
-13.022
-13.054
-13.186
-13.422
-13.762
-14.209
-14.761
-15.419
-16.182
-17.047
-18.007
-19.053
-20.176
-21.372
-22.643
-23.994
-25.428
-26.941
-28.53
-30.186
-31.901
-33.662
-35.443
-37.209
-38.926
-40.565
-42.103
-43.522
-44.795
-45.889
-46.765
-47.378
-47.698
-47.698
-47.367
-46.699
-45.706
-44.409
-42.847
-41.087
-39.205
-37.282
-35.391
-33.603
-31.981
-30.609
-29.628
-29.125
-29.1
-29.453
-29.942
-30.299
-30.321
-29.765
-28.267
-25.59
-21.751
-17.074
-12.353
-8.437
-5.89
-5.225
-6.954
-11.233
-17.658
-25.075
-31.424
-34.463
-32.17
-22.556
-3.693
26.123
66.605
115.135
168.755
224.083
280.913
342.426
407.064
469.475
519.847
543.849
535.034
495.245
430.25
349.806
262.09
172.863
91.174
28.986
-6.205
-12.752
2.403
24.47
43.23
54.64
59.723
64.063
69.757
75.716
80.37
81.476
78.876
74.025
68.118
62.473
58.066
55.137
53.729
53.67
54.504
55.801
57.22
58.403
59.052
59.04
58.342
57.019
55.229
53.103
50.743
48.276
45.813
43.448
41.268
39.325
37.647
36.266
35.197
34.446
34.007
33.865
33.998
34.38
34.986
35.783
36.743
37.833
39.017
40.253
41.494
42.692
43.808
44.812
45.692
46.443
47.069
47.581
47.99
48.314
48.577
48.792
48.965
49.09
49.149
49.136
49.06
48.938
48.799
48.658
48.512
48.36
48.194
48.002
47.781
47.508
47.141
46.672
46.115
45.514
44.951
44.487
44.155
43.984
43.982
44.173
44.598
45.286
46.263
47.559
49.206
51.255
53.793
56.856
60.445
64.519
68.991
73.795
78.894
84.246
89.819
95.574
101.459
107.439
113.495
119.591
125.681
131.701
137.552
143.174
148.539
153.647
158.528
163.199
167.655
171.898
175.932
179.754
183.365
186.751
189.879
192.731
195.302
197.596
199.638
201.436
202.979
204.254
205.234
205.899
206.241
206.246
205.899
205.194
204.129
202.712
200.963
198.898
196.528
193.863
190.909
187.678
184.187
180.453
176.496
172.335
167.99
163.483
158.839
154.079
149.225
144.294
139.303
134.268
129.209
124.143
119.087
114.059
109.074
104.151
99.307
94.557
89.916
85.397
81.012
76.772
72.687
68.764
65.011
61.433
58.034
54.817
51.784
48.936
46.271
43.787
41.482
39.352
37.391
35.595
33.955
32.466
31.118
29.906
28.819
27.85
26.99
26.229
25.558
24.968
24.45
23.993
23.587
23.224
22.893
22.587
22.295
22.012
21.729
21.44
21.14
20.825
20.491
20.136
19.757
19.354
18.927
18.479
18.01
17.524
17.024
16.515
16.002
15.489
14.983
14.489
14.013
13.56
13.138
12.752
12.408
12.112
11.87
11.688
11.572
11.526
11.556
11.666
11.859
12.14
12.511
12.973
13.527
14.173
14.909
15.734
16.643
17.633
18.698
19.83
21.022
22.266
23.552
24.869
26.208
27.556
28.902
30.234
31.541
32.812
34.033
35.193
36.281
37.287
38.197
39.004
39.695
40.261
40.693
40.983
41.123
41.106
40.924
40.574
40.051
39.352
38.475
37.419
36.185
34.775
33.193
31.442
29.53
27.463
25.251
22.901
20.426
17.836
15.143
12.359
9.498
6.571
3.592
0.575
-2.467
-5.521
-8.573
-11.61
-14.619
-17.585
-20.497
-23.343
-26.109
-28.786
-31.36
-33.823
-36.164
-38.374
-40.446
-42.372
-44.146
-45.762
-47.218
-48.51
-49.637
-50.6
-51.398
-52.035
-52.513
-52.837
-53.014
-53.048
-52.947
-52.718
-52.369
-51.91
-51.349
-50.696
-49.961
-49.156
-48.294
-47.388
-46.45
-45.494
-44.533
-43.58
-42.651
-41.757
-40.91
-40.119
-39.395
-38.751
-38.198
-37.746
-37.404
-37.179
-37.078
-37.109
-37.277
-37.583
-38.025
-38.601
-39.311
-40.159
-41.154
-42.296
-43.583
-45.012
-46.577
-48.27
-50.083
-51.997
-53.982
-56.011
-58.06
-60.11
-62.148
-64.147
-66.077
-67.9
-69.58
-71.093
-72.421
-73.545
-74.455
-75.156
-75.665
-76.02
-76.267
-76.446
-76.605
-76.798
-77.083
-77.528
-78.193
-79.159
-80.517
-82.303
-84.493
-86.978
-89.546
-91.974
-94.063
-95.545
-96.128
-95.617
-93.982
-91.507
-88.717
-86.136
-84.227
-83.441
-84.19
-86.751
-91.147
-96.584
-101.709
-105.276
-104.883
-98.138
-84.056
-60.662
-29.392
5.357
43.653
84.303
129.469
187.445
257.149
333.252
406.255
455.22
465.578
431.769
352.611
241.662
117.824
-3.258
-102.695
-168.368
-197.939
-192.952
-166.036
-134.614
-111.852
-106.863
-118.692
-138.362
-156.503
-166.405
-166.745
-161.423
-155.758
-152.709
-152.725
-154.276
-154.848
-153.455
-150.306
-145.841
-140.815
-135.679
-130.558
-125.753
-121.615
-118.301
-115.886
-114.363
-113.625
-113.589
-114.17
-115.234
-116.629
-118.223
-119.9
-121.533
-123.009
-124.238
-125.151
-125.711
-125.909
-125.738
-125.198
-124.311
-123.114
-121.647
-119.955
-118.079
-116.057
-113.939
-111.78
-109.641
-107.583
-105.648
-103.864
-102.25
-100.818
-99.574
-98.52
-97.646
-96.937
-96.379
-95.965
-95.684
-95.53
-95.491
-95.55
-95.692
-95.9
-96.161
-96.459
-96.781
-97.111
-97.437
-97.747
-98.028
-98.27
-98.458
-98.578
-98.615
-98.553
-98.376
-98.069
-97.618
-97.007
-96.224
-95.258
-94.098
-92.735
-91.161
-89.37
-87.357
-85.118
-82.65
-79.952
-77.024
-73.868
-70.487
-66.885
-63.068
-59.044
-54.821
-50.409
-45.819
-41.066
-36.162
-31.122
-25.962
-20.7
-15.353
-9.941
-4.482
1.001
6.49
11.962
17.395
22.768
28.061
33.25
38.317
43.242
48.004
52.585
56.969
61.138
65.076
68.77
72.205
75.369
78.252
80.844
83.136
85.122
86.796
88.155
89.195
89.915
90.316
90.399
90.167
89.625
88.777
87.631
86.195
84.479
82.492
80.246
77.753
75.027
72.081
68.93
65.588
62.071
58.394
54.573
50.623
46.56
42.4
38.158
33.849
29.487
25.088
20.664
16.23
11.797
7.378
2.985
-1.372
-5.683
-9.939
-14.13
-18.25
-22.291
-26.247
-30.112
-33.882
-37.551
-41.117
-44.575
-47.925
-51.164
-54.291
-57.304
-60.203
-62.989
-65.661
-68.221
-70.668
-73.004
-75.231
-77.349
-79.361
-81.268
-83.072
-84.775
-86.379
-87.886
-89.299
-90.619
-91.848
-92.988
-94.04
-95.008
-95.891
-96.692
-97.413
-98.055
-98.619
-99.107
-99.521
-99.863
-100.134
-100.337
-100.472
-100.543
-100.551
-100.498
-100.388
-100.221
-100.002
-99.731
-99.413
-99.049
-98.642
-98.196
-97.711
-97.191
-96.639
-96.057
-95.447
-94.812
-94.153
-93.474
-92.777
-92.064
-91.338
-90.6
-89.853
-89.099
-88.34
-87.577
-86.814
-86.05
-85.287
-84.526
-83.769
-83.016
-82.266
-81.521
-80.78
-80.043
-79.309
-78.577
-77.846
-77.115
-76.383
-75.647
-74.907
-74.161
-73.407
-72.644
-71.87
-71.085
-70.285
-69.47
-68.638
-67.788
-66.918
-66.026
-65.112
-64.174
-63.21
-62.22
-61.203
-60.158
-59.084
-57.981
-56.849
-55.687
-54.495
-53.275
-52.027
-50.752
-49.451
-48.128
-46.784
-45.422
-44.045
-42.656
-41.259
-39.856
-38.453
-37.051
-35.657
-34.273
-32.904
-31.553
-30.226
-28.926
-27.656
-26.422
-25.227
-24.074
-22.966
-21.908
-20.902
-19.95
-19.056
-18.222
-17.45
-16.742
-16.098
-15.521
-15.009
-14.563
-14.183
-13.865
-13.609
-13.412
-13.27
-13.18
-13.137
-13.138
-13.177
-13.249
-13.348
-13.468
-13.603
-13.747
-13.893
-14.035
-14.166
-14.281
-14.374
-14.439
-14.47
-14.463
-14.413
-14.315
-14.165
-13.96
-13.695
-13.368
-12.977
-12.52
-11.995
-11.403
-10.744
-10.019
-9.229
-8.377
-7.467
-6.5
-5.483
-4.418
-3.31
-2.166
-0.991
0.207
1.424
2.652
3.884
5.115
6.336
7.542
8.728
9.888
11.016
12.109
13.16
14.167
15.126
16.033
16.885
17.679
18.415
19.089
19.702
20.254
20.744
21.173
21.543
21.855
22.111
22.312
22.458
22.552
22.593
22.583
22.525
22.42
22.27
22.078
21.849
21.587
21.297
20.983
20.645
20.286
19.907
19.512
19.101
18.678
18.242
17.798
17.352
16.912
16.478
16.051
15.62
15.178
14.723
14.256
13.777
13.289
12.798
12.317
11.873
11.493
11.201
11.014
10.94
10.992
11.196
11.581
12.185
13.034
14.143
15.52
17.174
19.099
21.271
23.641
26.142
28.7
31.251
33.728
36.056
38.157
39.957
41.354
42.231
42.515
42.208
41.415
40.348
39.254
38.377
38.024
38.585
40.357
43.401
47.424
51.833
55.943
59.159
60.971
60.796
58.231
53.437
47.383
41.701
38.343
39.367
46.719
62.487
88.859
126.333
173.001
226.535
284.058
344.389
409.92
480.286
550.799
613.592
655.745
666.186
642.245
585.452
502.392
405.73
305.47
212.965
141.534
95.254
74.028
72.245
76.807
80.686
81.727
80.277
81.112
85.402
90.802
95.298
96.471
93.633
87.935
80.487
72.333
64.439
57.554
52.055
47.978
45.134
43.099
41.463
39.941
38.185
35.85
32.788
28.981
24.516
19.59
14.358
8.924
3.435
-1.97
-7.172
-12.059
-16.577
-20.691
-24.36
-27.544
-30.197
-32.295
-33.839
-34.854
-35.383
-35.461
-35.11
-34.348
-33.197
-31.683
-29.844
-27.706
-25.262
-22.525
-19.529
-16.329
-13.017
-9.658
-6.287
-2.925
0.426
3.745
6.992
10.134
13.147
16.001
18.67
21.103
23.216
24.97
26.361
27.427
28.254
28.903
29.404
29.79
30.085
30.322
30.545
30.785
31.054
31.38
31.799
32.372
33.189
34.301
35.726
37.457
39.447
41.672
44.122
46.785
49.645
52.691
55.908
59.3
62.885
66.667
70.637
74.776
79.042
83.415
87.886
92.453
97.129
101.917
106.81
111.805
116.903
122.094
127.366
132.697
138.05
143.398
148.716
153.982
159.178
164.281
169.264
174.103
178.77
183.239
187.486
191.483
195.204
198.624
201.724
204.484
206.893
208.936
210.601
211.878
212.757
213.231
213.295
212.946
212.179
210.996
209.399
207.392
204.982
202.18
198.996
195.443
191.538
187.298
182.742
177.89
172.766
167.391
161.792
155.993
150.021
143.904
137.667
131.339
124.949
118.522
112.087
105.67
99.297
92.993
86.782
80.687
74.731
68.932
63.312
57.886
52.673
47.686
42.937
38.44
34.201
30.229
26.529
23.104
19.955
17.082
14.483
12.154
10.088
8.278
6.715
5.39
4.289
3.402
2.714
2.211
1.879
1.703
1.667
1.756
1.954
2.245
2.614
3.046
3.526
4.041
4.576
5.12
5.659
6.183
6.682
7.146
7.568
7.94
8.255
8.51
8.699
8.822
8.875
8.86
8.776
8.627
8.414
8.142
7.814
7.437
7.014
6.553
6.059
5.538
4.996
4.44
3.875
3.308
2.744
2.188
1.645
1.119
0.615
0.134
-0.321
-0.748
-1.147
-1.517
-1.858
-2.172
-2.46
-2.725
-2.971
-3.2
-3.419
-3.633
-3.848
-4.07
-4.306
-4.565
-4.854
-5.179
-5.55
-5.972
-6.453
-7
-7.618
-8.313
-9.09
-9.953
-10.905
-11.948
-13.084
-14.313
-15.633
-17.044
-18.542
-20.122
-21.779
-23.508
-25.3
-27.148
-29.043
-30.974
-32.93
-34.9
-36.871
-38.83
-40.761
-42.652
-44.487
-46.251
-47.929
-49.506
-50.967
-52.299
-53.488
-54.521
-55.385
-56.071
-56.567
-56.865
-56.958
-56.84
-56.506
-55.953
-55.18
-54.188
-52.979
-51.557
-49.928
-48.097
-46.075
-43.87
-41.495
-38.963
-36.288
-33.485
-30.573
-27.569
-24.492
-21.363
-18.202
-15.031
-11.872
-8.746
-5.675
-2.682
0.214
2.99
5.627
8.104
10.404
12.509
14.404
16.072
17.502
18.682
19.602
20.255
20.634
20.735
20.556
20.096
19.356
18.339
17.048
15.49
13.673
11.606
9.299
6.765
4.017
1.07
-2.06
-5.357
-8.804
-12.383
-16.075
-19.862
-23.724
-27.644
-31.603
-35.581
-39.562
-43.528
-47.463
-51.35
-55.175
-58.925
-62.587
-66.151
-69.605
-72.943
-76.155
-79.237
-82.183
-84.989
-87.652
-90.171
-92.546
-94.775
-96.862
-98.806
-100.611
-102.281
-103.82
-105.234
-106.528
-107.709
-108.783
-109.757
-110.639
-111.435
-112.152
-112.795
-113.37
-113.883
-114.342
-114.751
-115.116
-115.44
-115.729
-115.987
-116.22
-116.428
-116.612
-116.771
-116.901
-117.009
-117.103
-117.184
-117.253
-117.316
-117.374
-117.437
-117.516
-117.606
-117.704
-117.807
-117.909
-118.018
-118.141
-118.282
-118.446
-118.626
-118.811
-119.008
-119.22
-119.436
-119.657
-119.87
-120.059
-120.247
-120.454
-120.689
-120.972
-121.297
-121.666
-122.093
-122.585
-123.154
-123.815
-124.566
-125.401
-126.331
-127.348
-128.445
-129.621
-130.829
-132.027
-133.192
-134.286
-135.29
-136.181
-136.922
-137.492
-137.877
-138.056
-138.019
-137.782
-137.359
-136.796
-136.157
-135.477
-134.819
-134.247
-133.812
-133.578
-133.598
-133.917
-134.56
-135.569
-137.012
-138.894
-141.16
-143.651
-146.053
-148.032
-149.305
-149.503
-148.219
-145.306
-140.781
-134.966
-128.64
-122.495
-117.109
-113.301
-111.729
-112.372
-114.864
-118.201
-120.397
-119.551
-113.787
-100.456
-78.093
-47.595
-10.072
32.713
80.297
136.43
202.781
275.361
344.266
393.053
407.823
384.394
327.436
248.278
158.692
66.925
-20.267
-95.68
-152.48
-186.498
-199.232
-198.291
-191.743
-184.999
-179.578
-173.136
-164.871
-155.973
-148.146
-143.875
-143.878
-146.991
-151.939
-157.147
-161.036
-162.917
-162.505
-159.709
-154.975
-148.897
-142.013
-134.965
-128.371
-122.55
-117.649
-113.723
-110.654
-108.344
-106.721
-105.658
-105.035
-104.776
-104.825
-105.13
-105.635
-106.242
-106.833
-107.321
-107.656
-107.808
-107.769
-107.531
-107.099
-106.491
-105.741
-104.878
-103.926
-102.903
-101.826
-100.721
-99.625
-98.58
-97.628
-96.799
-96.11
-95.566
-95.165
-94.9
-94.756
-94.711
-94.738
-94.811
-94.912
-95.022
-95.126
-95.204
-95.237
-95.203
-95.082
-94.856
-94.509
-94.026
-93.394
-92.604
-91.647
-90.516
-89.208
-87.719
-86.044
-84.179
-82.121
-79.866
-77.413
-74.762
-71.914
-68.871
-65.636
-62.216
-58.617
-54.848
-50.917
-46.835
-42.612
-38.261
-33.794
-29.224
-24.565
-19.832
-15.039
-10.202
-5.335
-0.453
4.428
9.292
14.125
18.913
23.64
28.292
32.856
37.317
41.663
45.879
49.954
53.875
57.63
61.208
64.599
67.792
70.78
73.555
76.109
78.436
80.533
82.393
84.015
85.397
86.535
87.431
88.085
88.496
88.669
88.605
88.308
87.782
87.033
86.066
84.887
83.504
81.923
80.153
78.203
76.083
73.803
71.374
68.808
66.116
63.312
60.407
57.417
54.353
51.23
48.06
44.858
41.637
38.411
35.191
31.992
28.824
25.701
22.634
19.633
16.708
13.871
11.129
8.491
5.965
3.559
1.278
-0.87
-2.882
-4.753
-6.48
-8.059
-9.489
-10.771
-11.903
-12.887
-13.725
-14.419
-14.975
-15.395
-15.685
-15.85
-15.897
-15.831
-15.661
-15.393
-15.035
-14.596
-14.082
-13.502
-12.864
-12.176
-11.446
-10.682
-9.891
-9.081
-8.259
-7.434
-6.612
-5.799
-5.004
-4.231
-3.488
-2.779
-2.11
-1.485
-0.908
-0.382
0.088
0.5
0.853
1.144
1.373
1.537
1.637
1.674
1.646
1.556
1.404
1.191
0.919
0.589
0.204
-0.235
-0.726
-1.266
-1.852
-2.482
-3.152
-3.858
-4.597
-5.366
-6.159
-6.973
-7.803
-8.644
-9.492
-10.343
-11.191
-12.031
-12.859
-13.669
-14.457
-15.217
-15.944
-16.635
-17.283
-17.885
-18.436
-18.932
-19.369
-19.742
-20.048
-20.284
-20.444
-20.527
-20.53
-20.449
-20.282
-20.029
-19.688
-19.259
-18.741
-18.136
-17.445
-16.669
-15.81
-14.872
-13.857
-12.77
-11.614
-10.395
-9.119
-7.791
-6.417
-5.003
-3.557
-2.086
-0.595
0.907
2.414
3.918
5.413
6.89
8.343
9.764
11.146
12.482
13.767
14.993
16.156
17.251
18.273
19.219
20.086
20.872
21.574
22.193
22.727
23.178
23.547
23.834
24.044
24.18
24.245
24.245
24.184
24.069
23.904
23.696
23.451
23.175
22.875
22.558
22.23
21.898
21.569
21.25
20.949
20.672
20.427
20.218
20.053
19.937
19.874
19.869
19.926
20.049
20.24
20.501
20.835
21.242
21.723
22.278
22.905
23.603
24.368
25.199
26.092
27.042
28.047
29.1
30.198
31.335
32.508
33.71
34.936
36.18
37.436
38.696
39.954
41.201
42.427
43.624
44.784
45.898
46.959
47.959
48.889
49.747
50.528
51.226
51.837
52.354
52.771
53.086
53.296
53.4
53.396
53.282
53.06
52.738
52.318
51.802
51.188
50.465
49.626
48.673
47.61
46.442
45.181
43.837
42.432
41.001
39.576
38.187
36.857
35.597
34.429
33.386
32.504
31.834
31.411
31.251
31.371
31.776
32.455
33.387
34.525
35.794
37.131
38.467
39.733
40.875
41.822
42.51
42.86
42.738
42.096
40.98
39.51
37.957
36.595
35.596
35.223
35.846
37.623
40.524
44.242
47.991
51.106
53.254
54.094
53.363
51.109
47.712
44.217
42.581
44.716
52.023
65.924
87.718
118.359
158.53
206.745
259.026
312.006
362.665
411.108
460.838
510.629
556.959
592.253
602.983
583.72
533.422
454.465
361.421
267.003
183.768
127.141
99.564
97.326
112.302
129.241
140.191
143.682
141.136
137.879
136.072
134.604
132.054
126.685
118.547
109.093
99.687
91.65
85.56
81.404
79.119
78.389
78.767
79.791
80.936
81.728
81.93
81.47
80.33
78.577
76.273
73.474
70.288
66.832
63.188
59.417
55.573
51.7
47.878
44.227
40.832
37.751
35.016
32.633
30.611
28.961
27.677
26.731
26.092
25.727
25.607
25.709
26.001
26.439
26.975
27.552
28.127
28.671
29.16
29.579
29.915
30.158
30.307
30.366
30.341
30.231
30.036
29.753
29.384
28.935
28.412
27.824
27.176
26.477
25.732
24.952
24.142
23.311
22.466
21.613
20.761
19.921
19.105
18.326
17.598
16.934
16.348
15.854
15.466
15.196
15.056
15.057
15.209
15.521
16.002
16.659
17.499
18.53
19.755
21.18
22.807
24.637
26.672
28.909
31.348
33.982
36.808
39.819
43.006
46.361
49.873
53.53
57.319
61.226
65.235
69.327
73.484
77.687
81.913
86.143
90.354
94.523
98.629
102.649
106.565
110.354
114
117.48
120.778
123.875
126.754
129.397
131.785
133.899
135.722
137.241
138.442
139.315
139.85
140.039
139.877
139.363
138.496
137.275
135.697
133.753
131.445
128.785
125.79
122.485
118.894
115.038
110.945
106.651
102.181
97.558
92.79
87.867
82.796
77.591
72.278
66.896
61.471
56.009
50.517
44.997
39.447
33.874
28.265
22.584
16.828
11.014
5.188
-0.564
-6.183
-11.635
-16.892
-21.949
-26.783
-31.356
-35.641
-39.617
-43.254
-46.529
-49.389
-51.754
-53.589
-54.898
-55.722
-56.15
-56.249
-56.055
-55.61
-54.945
-54.096
-53.112
-52.024
-50.846
-49.61
-48.352
-47.133
-46.04
-45.125
-44.406
-43.875
-43.486
-43.213
-43.046
-42.97
-42.968
-43.027
-43.13
-43.277
-43.485
-43.757
-44.084
-44.445
-44.802
-45.135
-45.438
-45.715
-45.981
-46.245
-46.509
-46.777
-47.058
-47.356
-47.67
-47.989
-48.296
-48.576
-48.825
-49.037
-49.214
-49.353
-49.45
-49.5
-49.499
-49.444
-49.333
-49.163
-48.932
-48.639
-48.287
-47.882
-47.433
-46.948
-46.435
-45.902
-45.359
-44.815
-44.28
-43.761
-43.267
-42.805
-42.386
-42.017
-41.707
-41.464
-41.297
-41.212
-41.217
-41.318
-41.52
-41.83
-42.249
-42.783
-43.432
-44.198
-45.081
-46.082
-47.197
-48.424
-49.76
-51.199
-52.737
-54.366
-56.078
-57.866
-59.721
-61.632
-63.589
-65.582
-67.6
-69.633
-71.67
-73.7
-75.714
-77.7
-79.648
-81.548
-83.391
-85.167
-86.868
-88.484
-90.009
-91.435
-92.755
-93.965
-95.057
-96.029
-96.877
-97.597
-98.187
-98.647
-98.976
-99.173
-99.24
-99.18
-98.994
-98.686
-98.259
-97.719
-97.071
-96.32
-95.473
-94.535
-93.513
-92.414
-91.245
-90.014
-88.729
-87.395
-86.022
-84.617
-83.187
-81.739
-80.282
-78.821
-77.365
-75.918
-74.488
-73.081
-71.701
-70.355
-69.046
-67.779
-66.558
-65.386
-64.266
-63.199
-62.188
-61.232
-60.333
-59.491
-58.704
-57.971
-57.29
-56.659
-56.076
-55.536
-55.036
-54.572
-54.139
-53.73
-53.342
-52.968
-52.602
-52.238
-51.867
-51.486
-51.086
-50.661
-50.206
-49.714
-49.179
-48.595
-47.958
-47.263
-46.505
-45.68
-44.785
-43.817
-42.775
-41.658
-40.464
-39.194
-37.848
-36.429
-34.939
-33.382
-31.763
-30.085
-28.357
-26.584
-24.777
-22.944
-21.095
-19.242
-17.397
-15.573
-13.785
-12.045
-10.369
-8.769
-7.261
-5.859
-4.575
-3.421
-2.41
-1.555
-0.866
-0.356
-0.034
0.091
0.009
-0.288
-0.808
-1.555
-2.528
-3.726
-5.148
-6.795
-8.668
-10.765
-13.074
-15.588
-18.296
-21.184
-24.235
-27.422
-30.705
-34.05
-37.427
-40.811
-44.186
-47.528
-50.803
-53.981
-57.03
-59.932
-62.677
-65.246
-67.613
-69.766
-71.711
-73.491
-75.16
-76.756
-78.293
-79.763
-81.17
-82.541
-83.902
-85.286
-86.712
-88.151
-89.614
-91.18
-92.854
-94.572
-96.165
-97.252
-97.474
-96.638
-94.47
-90.668
-85.208
-78.189
-70.038
-61.732
-54.148
-47.846
-43.515
-41.826
-42.671
-45.542
-49.574
-51.896
-49.755
-42.193
-26.844
-4.471
21.393
52.012
87.037
129.471
187.601
259.336
337.913
409.447
452.287
457.782
426.27
367.264
297.905
224.149
148.589
71.973
-5.687
-72.483
-117.939
-136.095
-125.673
-98.316
-66.837
-42.492
-33.526
-38.732
-53.013
-68.565
-78.452
-81.175
-78.287
-73.928
-71.253
-70.259
-69.869
-68.323
-64.744
-59.699
-53.913
-48.012
-42.436
-37.402
-33.046
-29.493
-26.768
-24.763
-23.392
-22.601
-22.307
-22.434
-22.908
-23.623
-24.494
-25.428
-26.308
-27.046
-27.581
-27.872
-27.907
-27.685
-27.204
-26.489
-25.575
-24.498
-23.294
-21.993
-20.619
-19.212
-17.816
-16.482
-15.261
-14.192
-13.294
-12.585
-12.07
-11.749
-11.617
-11.66
-11.854
-12.183
-12.631
-13.183
-13.827
-14.547
-15.323
-16.135
-16.963
-17.791
-18.6
-19.376
-20.103
-20.766
-21.352
-21.849
-22.246
-22.531
-22.689
-22.704
-22.563
-22.252
-21.76
-21.076
-20.191
-19.098
-17.791
-16.271
-14.535
-12.582
-10.411
-8.02
-5.411
-2.585
0.457
3.712
7.177
10.844
14.705
18.746
22.956
27.326
31.847
36.515
41.321
46.247
51.28
56.399
61.58
66.792
71.996
77.138
82.181
87.094
91.86
96.467
100.905
105.165
109.24
113.128
116.826
120.339
123.662
126.791
129.736
132.524
135.203
137.841
140.484
143.143
145.819
148.499
151.159
153.773
156.297
158.645
160.743
162.54
163.992
165.082
165.787
166.01
165.636
164.623
162.939
160.602
157.67
154.061
149.684
144.629
139.006
132.8
126.04
118.634
110.425
101.677
92.707
83.595
74.488
65.65
57.219
49.534
42.975
37.299
32.228
27.705
23.542
19.58
15.774
11.838
7.481
2.913
-1.68
-6.243
-10.638
-14.881
-19.031
-22.962
-26.564
-29.93
-33.125
-36.182
-39.155
-41.976
-44.575
-46.969
-49.163
-51.147
-52.92
-54.47
-55.784
-56.89
-57.81
-58.554
-59.138
-59.559
-59.819
-59.931
-59.906
-59.758
-59.502
-59.147
-58.703
-58.177
-57.576
-56.907
-56.174
-55.377
-54.517
-53.598
-52.623
-51.599
-50.531
-49.425
-48.286
-47.12
-45.93
-44.72
-43.494
-42.253
-41.001
-39.739
-38.471
-37.198
-35.923
-34.65
-33.381
-32.12
-30.871
-29.638
-28.424
-27.235
-26.075
-24.949
-23.864
-22.825
-21.838
-20.909
-20.045
-19.252
-18.537
-17.906
-17.364
-16.919
-16.574
-16.336
-16.209
-16.197
-16.306
-16.539
-16.9
-17.394
-18.023
-18.79
-19.698
-20.749
-21.942
-23.279
-24.759
-26.38
-28.14
-30.035
-32.063
-34.218
-36.493
-38.882
-41.378
-43.972
-46.654
-49.415
-52.244
-55.129
-58.06
-61.024
-64.01
-67.004
-69.995
-72.969
-75.914
-78.818
-81.668
-84.451
-87.155
-89.768
-92.278
-94.673
-96.943
-99.078
-101.067
-102.902
-104.576
-106.081
-107.412
-108.562
-109.53
-110.31
-110.903
-111.308
-111.525
-111.557
-111.407
-111.08
-110.582
-109.919
-109.099
-108.13
-107.023
-105.786
-104.431
-102.969
-101.411
-99.771
-98.06
-96.293
-94.482
-92.642
-90.787
-88.93
-87.085
-85.265
-83.485
-81.756
-80.091
-78.501
-76.998
-75.591
-74.29
-73.104
-72.04
-71.105
-70.304
-69.64
-69.117
-68.735
-68.495
-68.396
-68.435
-68.609
-68.914
-69.345
-69.896
-70.559
-71.328
-72.192
-73.144
-74.171
-75.264
-76.41
-77.599
-78.818
-80.055
-81.298
-82.534
-83.753
-84.943
-86.093
-87.191
-88.227
-89.191
-90.073
-90.864
-91.556
-92.142
-92.616
-92.971
-93.206
-93.316
-93.302
-93.161
-92.895
-92.505
-91.993
-91.363
-90.62
-89.768
-88.814
-87.766
-86.631
-85.418
-84.138
-82.798
-81.41
-79.981
-78.523
-77.044
-75.553
-74.058
-72.566
-71.086
-69.625
-68.192
-66.794
-65.44
-64.136
-62.892
-61.714
-60.609
-59.579
-58.627
-57.753
-56.956
-56.234
-55.585
-55.003
-54.48
-54.013
-53.599
-53.232
-52.906
-52.613
-52.336
-52.069
-51.806
-51.545
-51.287
-51.032
-50.782
-50.549
-50.353
-50.212
-50.143
-50.151
-50.225
-50.358
-50.548
-50.787
-51.074
-51.394
-51.711
-52.001
-52.244
-52.412
-52.485
-52.417
-52.14
-51.608
-50.782
-49.643
-48.202
-46.465
-44.435
-42.134
-39.587
-36.833
-33.947
-30.976
-27.952
-24.926
-21.936
-19.052
-16.369
-13.947
-11.825
-10.041
-8.605
-7.54
-6.879
-6.611
-6.721
-7.213
-8.076
-9.337
-11.03
-13.144
-15.646
-18.499
-21.685
-25.175
-28.886
-32.729
-36.603
-40.429
-44.24
-48.079
-51.794
-55.306
-58.69
-61.68
-63.86
-64.972
-64.345
-62.148
-59.971
-57.527
-53.441
-45.812
-30.715
-9.316
12.514
30.218
38.485
38.113
36.22
35.574
38.177
44.352
52.249
67.999
99.563
151.813
226.355
314.258
402.864
479.535
533.049
559.726
557.217
527.024
472.773
395.205
301.719
201.038
104.504
28.844
-18.939
-38.689
-37.047
-29.042
-23.038
-21.32
-22.836
-21.909
-16.938
-10.219
-3.983
-0.99
-2.038
-5.925
-11.501
-17.628
-23.259
-27.679
-30.52
-31.754
-31.668
-30.73
-29.364
-27.894
-26.666
-26.013
-26.106
-26.976
-28.541
-30.633
-33.105
-35.856
-38.78
-41.755
-44.681
-47.46
-49.983
-52.193
-54.05
-55.519
-56.592
-57.264
-57.533
-57.417
-56.957
-56.189
-55.149
-53.872
-52.379
-50.709
-48.906
-47.02
-45.107
-43.21
-41.357
-39.573
-37.873
-36.269
-34.77
-33.374
-32.069
-30.846
-29.701
-28.629
-27.629
-26.697
-25.822
-24.992
-24.197
-23.426
-22.668
-21.912
-21.147
-20.36
-19.543
-18.686
-17.781
-16.821
-15.793
-14.686
-13.491
-12.194
-10.786
-9.257
-7.594
-5.787
-3.829
-1.711
0.573
3.028
5.66
8.473
11.468
14.647
18.012
21.562
25.297
29.214
33.311
37.581
42.02
46.619
51.368
56.258
61.274
66.403
71.627
76.933
82.304
87.723
93.172
98.634
104.093
109.53
114.931
120.275
125.542
130.709
135.755
140.66
145.4
149.953
154.298
158.411
162.274
165.873
169.191
172.211
174.912
177.272
179.273
180.904
182.16
183.034
183.524
183.635
183.382
182.792
181.893
180.701
179.223
177.455
175.394
173.043
170.405
167.484
164.269
160.746
156.909
152.759
148.295
143.505
138.353
132.783
126.75
120.239
113.263
105.856
98.053
89.9
81.455
72.796
64.03
55.254
46.547
37.97
29.585
21.47
13.732
6.502
-0.113
-6.044
-11.252
-15.722
-19.441
-22.421
-24.701
-26.36
-27.506
-28.233
-28.603
-28.664
-28.461
-28.056
-27.534
-26.995
-26.512
-26.139
-25.914
-25.865
-26.02
-26.388
-26.947
-27.648
-28.419
-29.21
-29.995
-30.761
-31.5
-32.194
-32.82
-33.352
-33.785
-34.113
-34.334
-34.443
-34.432
-34.304
-34.078
-33.786
-33.463
-33.135
-32.813
-32.505
-32.213
-31.941
-31.692
-31.462
-31.238
-31.014
-30.785
-30.546
-30.298
-30.036
-29.752
-29.436
-29.079
-28.673
-28.214
-27.699
-27.123
-26.488
-25.792
-25.04
-24.238
-23.391
-22.504
-21.58
-20.625
-19.644
-18.645
-17.633
-16.616
-15.602
-14.598
-13.614
-12.66
-11.746
-10.881
-10.073
-9.333
-8.67
-8.091
-7.604
-7.216
-6.933
-6.761
-6.705
-6.768
-6.952
-7.26
-7.692
-8.247
-8.923
-9.719
-10.629
-11.649
-12.772
-13.99
-15.296
-16.678
-18.128
-19.632
-21.18
-22.758
-24.353
-25.95
-27.535
-29.094
-30.611
-32.072
-33.462
-34.766
-35.971
-37.064
-38.032
-38.862
-39.546
-40.072
-40.432
-40.618
-40.625
-40.446
-40.078
-39.518
-38.765
-37.819
-36.68
-35.351
-33.837
-32.144
-30.277
-28.245
-26.058
-23.727
-21.264
-18.68
-15.991
-13.209
-10.351
-7.432
-4.468
-1.475
1.531
4.533
7.516
10.463
13.359
16.19
18.942
21.601
24.155
26.592
28.902
31.074
33.1
34.972
36.681
38.223
39.593
40.786
41.8
42.634
43.288
43.763
44.06
44.184
44.139
43.93
43.563
43.045
42.385
41.589
40.668
39.632
38.489
37.251
35.928
34.531
33.07
31.555
29.997
28.406
26.792
25.165
23.535
21.912
20.304
18.722
17.176
15.673
14.224
12.836
11.519
10.278
9.121
8.056
7.087
6.222
5.465
4.822
4.297
3.893
3.616
3.469
3.453
3.571
3.826
4.219
4.752
5.427
6.243
7.202
8.305
9.552
10.942
12.474
14.146
15.956
17.899
19.97
22.164
24.473
26.891
29.409
32.018
34.71
37.475
40.305
43.19
46.119
49.083
52.07
55.066
58.06
61.038
63.989
66.899
69.756
72.544
75.251
77.864
80.374
82.767
85.029
87.14
89.084
90.853
92.445
93.857
95.091
96.149
97.043
97.794
98.428
98.971
99.441
99.846
100.199
100.519
100.832
101.174
101.565
102.003
102.481
102.992
103.526
104.066
104.565
104.941
105.11
104.996
104.544
103.721
102.489
100.816
98.663
95.986
92.78
89.078
84.939
80.432
75.593
70.438
65.093
59.819
54.944
50.83
47.752
45.935
45.687
47.337
51.068
56.742
63.909
72.009
80.424
88.424
95.353
100.689
104.943
110.064
118.034
129.824
143.548
155.997
165.637
173.902
188.544
217.921
266.616
336.471
419.246
502.043
572.677
615.011
619.035
582.573
506.665
402.501
285.92
171.352
73.739
2.309
-40.138
-54.663
-45.78
-19.003
18.136
57.62
90.428
108.617
111.19
102
88.871
79.164
74.922
74.59
74.309
71.805
67.218
61.753
57.487
55.353
55.322
57.128
59.861
62.546
64.744
66.213
66.861
66.789
65.906
64.127
61.618
58.658
55.503
52.325
49.205
46.173
43.3
40.67
38.317
36.232
34.386
32.763
31.358
30.17
29.196
28.415
27.802
27.337
26.992
26.737
26.538
26.353
26.153
25.916
25.628
25.277
24.86
24.375
23.828
23.235
22.602
21.939
21.255
20.557
19.857
19.171
18.509
17.885
17.31
16.794
16.349
15.983
15.706
15.525
15.445
15.471
15.609
15.868
16.252
16.768
17.421
18.218
19.163
20.261
21.518
22.936
24.516
26.262
28.173
30.249
32.49
34.894
37.457
40.176
43.046
46.061
49.215
52.499
55.906
59.426
63.05
66.766
70.565
74.434
78.36
82.331
86.333
90.352
94.374
98.384
102.367
106.306
110.188
113.995
117.711
121.32
124.805
128.151
131.34
134.357
137.186
139.812
142.221
144.398
146.331
148.007
149.416
150.547
151.39
151.937
152.181
152.117
151.739
151.043
150.027
148.69
147.033
145.057
142.765
140.162
137.255
134.05
130.556
126.783
122.743
118.449
113.915
109.156
104.19
99.034
93.707
88.229
82.621
76.903
71.096
65.222
59.303
53.359
47.411
41.481
35.589
29.753
23.994
18.33
12.777
7.351
2.069
-3.058
-8.016
-12.794
-17.384
-21.778
-25.969
-29.954
-33.729
-37.295
-40.651
-43.8
-46.747
-49.498
-52.06
-54.443
-56.658
-58.717
-60.634
-62.422
-64.096
-65.674
-67.169
-68.6
-69.984
-71.336
-72.675
-74.016
-75.377
-76.773
-78.22
-79.731
-81.322
-83.005
-84.79
-86.69
-88.713
-90.867
-93.159
-95.595
-98.177
-100.908
-103.788
-106.817
-109.991
-113.308
-116.76
-120.341
-124.042
-127.854
-131.765
-135.764
-139.838
-143.974
-148.157
-152.372
-156.606
-160.843
-165.068
-169.266
-173.421
-177.52
-181.548
-185.492
-189.339
-193.075
-196.691
-200.174
-203.515
-206.705
-209.737
-212.603
-215.298
-217.818
-220.159
-222.32
-224.301
-226.1
-227.721
-229.167
-230.441
-231.548
-232.496
-233.29
-233.94
-234.452
-234.838
-235.106
-235.267
-235.331
-235.309
-235.212
-235.049
-234.833
-234.573
-234.279
-233.961
-233.63
-233.293
-232.961
-232.64
-232.338
-232.063
-231.819
-231.614
-231.451
-231.335
-231.269
-231.256
-231.298
-231.396
-231.55
-231.761
-232.026
-232.345
-232.715
-233.132
-233.592
-234.093
-234.629
-235.196
-235.788
-236.401
-237.028
-237.665
-238.305
-238.943
-239.573
-240.191
-240.789
-241.363
-241.909
-242.424
-242.902
-243.34
-243.733
-244.077
-244.368
-244.605
-244.785
-244.904
-244.96
-244.951
-244.876
-244.737
-244.535
-244.268
-243.935
-243.535
-243.068
-242.54
-241.958
-241.324
-240.639
-239.906
-239.125
-238.302
-237.441
-236.542
-235.606
-234.626
-233.598
-232.523
-231.406
-230.256
-229.067
-227.822
-226.504
-225.091
-223.583
-222.001
-220.36
-218.657
-216.892
-215.04
-213.111
-211.188
-209.266
-207.255
-205.085
-202.628
-199.876
-197.039
-194.203
-191.3
-188.477
-185.938
-183.859
-182.682
-182.516
-182.964
-183.899
-185.242
-186.536
-187.471
-187.766
-186.676
-183.949
-179.929
-174.555
-168.04
-161.127
-154.164
-147.479
-141.837
-137.506
-134.399
-132.86
-132.692
-133.143
-133.889
-134.602
-134.745
-134.158
-132.712
-129.961
-125.958
-121.169
-115.808
-110.122
-104.362
-98.54
-92.789
-87.417
-82.495
-77.926
-73.708
-69.794
-66.212
-63.146
-60.625
-58.553
-56.838
-55.266
-53.592
-51.692
-49.384
-46.373
-42.568
-38.072
-33.122
-28.35
-24.413
-21.564
-19.903
-19.649
-20.856
-23.215
-26.127
-27.543
-24.061
-13.159
5.858
30.875
56.589
77.91
95.57
116.901
152.593
213.682
300.662
399.107
489.235
548.888
563.134
534.228
471.03
385.224
290.589
194.49
103.222
26.677
-27.683
-55.209
-54.202
-31.144
2.601
36.853
60.909
68.776
62.176
45.56
27.112
13.975
7.732
7.147
8.286
8.059
6.379
4.248
3.376
4.553
7.269
10.82
14.504
17.88
20.792
23.152
24.901
26.063
26.717
26.931
26.763
26.281
25.557
24.654
23.651
22.61
21.597
20.72
20.071
19.706
19.666
19.959
20.587
21.559
22.868
24.487
26.39
28.543
30.921
33.501
36.253
39.135
42.098
45.089
48.064
50.997
53.863
56.65
59.346
61.94
64.432
66.831
69.137
71.353
73.476
75.502
77.431
79.268
81.02
82.691
84.288
85.815
87.279
88.686
90.039
91.342
92.596
93.802
94.96
96.075
97.146
98.18
99.182
100.159
101.119
102.072
103.027
103.993
104.979
105.992
107.041
108.131
109.263
110.444
111.679
112.979
114.357
115.82
117.37
119.012
120.741
122.549
124.423
126.336
128.259
130.175
132.072
133.947
135.809
137.663
139.519
141.387
143.268
145.162
147.075
149.003
150.948
152.928
154.968
157.115
159.426
161.929
164.636
167.543
170.613
173.804
177.062
180.305
183.473
186.514
189.374
192.022
194.425
196.527
198.264
199.555
200.297
200.426
199.899
198.686
196.802
194.278
191.169
187.572
183.567
179.216
174.577
169.685
164.571
159.29
153.895
148.452
143.045
137.741
132.589
127.639
122.906
118.39
114.07
109.892
105.81
101.801
97.845
93.943
90.102
86.318
82.59
78.925
75.31
71.739
68.209
64.712
61.253
57.848
54.52
51.306
48.243
45.35
42.646
40.139
37.832
35.726
33.818
32.099
30.561
29.199
28.008
26.985
26.125
25.415
24.843
24.394
24.05
23.797
23.618
23.499
23.426
23.388
23.372
23.371
23.373
23.369
23.347
23.296
23.204
23.06
22.855
22.578
22.221
21.776
21.238
20.601
19.863
19.022
18.076
17.025
15.871
14.615
13.262
11.816
10.282
8.666
6.976
5.22
3.407
1.546
-0.352
-2.276
-4.216
-6.159
-8.094
-10.01
-11.894
-13.734
-15.519
-17.236
-18.874
-20.421
-21.867
-23.201
-24.413
-25.495
-26.439
-27.238
-27.887
-28.383
-28.721
-28.899
-28.918
-28.777
-28.479
-28.025
-27.42
-26.668
-25.775
-24.748
-23.596
-22.326
-20.947
-19.471
-17.907
-16.267
-14.562
-12.804
-11.006
-9.181
-7.342
-5.502
-3.673
-1.87
-0.105
1.61
3.261
4.838
6.328
7.722
9.009
10.182
11.231
12.149
12.931
13.571
14.064
14.407
14.597
14.633
14.513
14.238
13.807
13.224
12.489
11.606
10.577
9.407
8.1
6.661
5.095
3.409
1.609
-0.299
-2.306
-4.405
-6.589
-8.849
-11.176
-13.563
-16.001
-18.481
-20.997
-23.539
-26.099
-28.671
-31.247
-33.818
-36.379
-38.923
-41.444
-43.934
-46.389
-48.803
-51.17
-53.485
-55.743
-57.939
-60.067
-62.122
-64.1
-65.996
-67.805
-69.521
-71.14
-72.659
-74.073
-75.378
-76.572
-77.65
-78.61
-79.448
-80.163
-80.751
-81.21
-81.538
-81.732
-81.791
-81.715
-81.501
-81.147
-80.654
-80.02
-79.246
-78.332
-77.278
-76.085
-74.754
-73.288
-71.69
-69.963
-68.112
-66.142
-64.058
-61.87
-59.587
-57.217
-54.77
-52.256
-49.685
-47.069
-44.418
-41.74
-39.046
-36.343
-33.642
-30.956
-28.296
-25.675
-23.101
-20.587
-18.142
-15.779
-13.507
-11.329
-9.252
-7.28
-5.426
-3.707
-2.139
-0.726
0.527
1.618
2.55
3.328
3.967
4.497
4.945
5.338
5.695
6.024
6.34
6.671
7.05
7.518
8.102
8.81
9.656
10.653
11.788
13.033
14.333
15.601
16.782
17.826
18.677
19.28
19.564
19.449
18.883
17.803
16.111
13.794
10.911
7.6
4.171
0.94
-1.854
-3.889
-4.792
-4.376
-2.657
0.07
3.105
5.817
7.864
8.88
8.459
6.484
3.283
-0.144
-2.044
-0.716
5.282
17.499
37.517
66.879
105.489
150.868
200.059
249.988
300.242
354.525
413.687
474.854
530.818
566.1
568.123
531.132
454.186
349.724
235.134
127.069
43.838
-7.591
-29.704
-30.196
-24.023
-20.003
-20
-22.859
-22.67
-17.54
-9.884
-2.056
2.754
3.396
0.997
-3.379
-8.647
-13.647
-17.577
-20.013
-20.801
-20.193
-18.683
-16.698
-14.586
-12.75
-11.574
-11.264
-11.893
-13.389
-15.57
-18.286
-21.414
-24.824
-28.37
-31.93
-35.392
-38.646
-41.631
-44.299
-46.609
-48.547
-50.107
-51.287
-52.105
-52.599
-52.801
-52.751
-52.49
-52.046
-51.46
-50.78
-50.057
-49.348
-48.694
-48.122
-47.655
-47.307
-47.086
-46.999
-47.043
-47.207
-47.481
-47.861
-48.341
-48.92
-49.592
-50.346
-51.171
-52.056
-52.988
-53.958
-54.957
-55.974
-57
-58.027
-59.05
-60.063
-61.064
-62.042
-62.989
-63.895
-64.752
-65.549
-66.278
-66.925
-67.478
-67.93
-68.273
-68.505
-68.621
-68.616
-68.485
-68.221
-67.824
-67.289
-66.61
-65.783
-64.798
-63.655
-62.362
-60.932
-59.383
-57.728
-55.97
-54.118
-52.18
-50.157
-48.046
-45.832
-43.487
-40.995
-38.357
-35.578
-32.674
-29.65
-26.495
-23.203
-19.765
-16.181
-12.471
-8.646
-4.716
-0.708
3.34
7.356
11.221
14.836
18.149
21.121
23.745
26.001
27.777
29.011
29.759
30.114
30.232
30.289
30.369
30.533
31.025
32.002
33.333
34.855
36.275
36.937
36.141
33.517
28.566
22.204
17.508
16.716
20.348
25.741
26.354
17.367
1.926
-8.157
3.226
50.164
