Name
Date of Birth,"Jan 30, 1994"
Recorded Date,2024-11-04 17:33:40 -0700
Classification,Sinus Rhythm
Symptoms,
Software Version,1.90
Device,"Watch6,3"
Sample Rate,512 hertz


Lead,Lead I
Unit,µV

73.704
136.132
200.728
265.51
333.705
406.855
482.505
553.686
603.104
613.583
576.371
489.085
364.315
224.135
88.542
-21.473
-93.716
-129.964
-137.066
-129.57
-122.599
-121.646
-128.024
-138.39
-147.088
-153.616
-159.618
-166.857
-177.757
-192.385
-208.784
-225.275
-240.092
-251.822
-260.118
-264.91
-265.986
-263.249
-257.014
-247.863
-236.793
-225.033
-213.276
-201.965
-191.643
-182.931
-176.425
-172.369
-170.382
-169.692
-169.793
-170.38
-171.167
-171.786
-171.658
-170.398
-168.08
-165.067
-161.616
-157.823
-153.701
-149.286
-144.787
-140.37
-135.997
-131.497
-126.707
-121.566
-116.087
-110.299
-104.186
-97.737
-91
-84.092
-77.154
-70.285
-63.542
-56.947
-50.522
-44.311
-38.351
-32.665
-27.266
-22.168
-17.413
-13.077
-9.228
-5.906
-3.126
-0.858
0.933
2.279
3.223
3.819
4.136
4.265
4.28
4.231
4.169
4.143
4.234
4.55
5.184
6.204
7.654
9.545
11.885
14.677
17.895
21.488
25.382
29.477
33.698
38.001
42.336
46.659
50.907
54.994
58.853
62.439
65.718
68.668
71.272
73.508
75.385
76.94
78.225
79.312
80.248
81.053
81.745
82.334
82.832
83.266
83.643
83.951
84.19
84.362
84.48
84.573
84.648
84.692
84.681
84.576
84.354
84.011
83.549
82.984
82.335
81.624
80.889
80.186
79.55
79
78.526
78.077
77.618
77.119
76.564
75.96
75.304
74.591
73.81
72.942
71.957
70.822
69.483
67.865
65.914
63.59
60.903
57.92
54.709
51.347
47.896
44.392
40.87
37.359
33.887
30.481
27.177
24.009
21.036
18.338
15.986
14.05
12.548
11.445
10.688
10.204
9.934
9.84
9.888
10.049
10.305
10.64
11.044
11.509
12.008
12.499
12.932
13.25
13.427
13.473
13.413
13.293
13.149
13.003
12.879
12.797
12.767
12.792
12.868
12.981
13.128
13.318
13.565
13.892
14.311
14.819
15.406
16.053
16.745
17.469
18.211
18.957
19.697
20.426
21.144
21.857
22.569
23.277
23.977
24.66
25.321
25.954
26.557
27.125
27.656
28.146
28.592
28.994
29.349
29.652
29.897
30.077
30.183
30.21
30.15
29.995
29.74
29.378
28.902
28.307
27.589
26.742
25.761
24.639
23.373
21.957
20.387
18.659
16.769
14.713
12.49
10.098
7.536
4.803
1.9
-1.171
-4.41
-7.813
-11.378
-15.102
-18.979
-23.006
-27.176
-31.481
-35.916
-40.471
-45.136
-49.903
-54.761
-59.698
-64.704
-69.766
-74.873
-80.012
-85.169
-90.332
-95.487
-100.619
-105.715
-110.76
-115.741
-120.643
-125.453
-130.157
-134.743
-139.197
-143.507
-147.661
-151.648
-155.456
-159.074
-162.493
-165.704
-168.697
-171.466
-174.003
-176.303
-178.36
-180.17
-181.73
-183.037
-184.091
-184.89
-185.436
-185.73
-185.774
-185.572
-185.129
-184.45
-183.541
-182.409
-181.062
-179.51
-177.76
-175.823
-173.709
-171.43
-168.997
-166.421
-163.716
-160.894
-157.97
-154.956
-151.866
-148.715
-145.517
-142.287
-139.039
-135.788
-132.548
-129.334
-126.161
-123.041
-119.989
-117.016
-114.137
-111.361
-108.701
-106.167
-103.768
-101.514
-99.413
-97.474
-95.703
-94.107
-92.691
-91.462
-90.422
-89.574
-88.923
-88.468
-88.212
-88.153
-88.293
-88.627
-89.156
-89.873
-90.775
-91.855
-93.106
-94.518
-96.084
-97.793
-99.635
-101.6
-103.678
-105.858
-108.13
-110.486
-112.913
-115.401
-117.938
-120.51
-123.104
-125.707
-128.305
-130.885
-133.431
-135.93
-138.372
-140.747
-143.041
-145.244
-147.338
-149.312
-151.16
-152.876
-154.457
-155.907
-157.226
-158.425
-159.521
-160.532
-161.473
-162.358
-163.191
-163.973
-164.71
-165.408
-166.073
-166.705
-167.291
-167.812
-168.255
-168.603
-168.84
-168.943
-168.866
-168.574
-168.043
-167.258
-166.228
-164.974
-163.509
-161.858
-160.05
-158.132
-156.173
-154.253
-152.438
-150.792
-149.372
-148.241
-147.49
-147.191
-147.392
-148.115
-149.348
-151.064
-153.239
-155.839
-158.81
-162.079
-165.544
-169.084
-172.6
-176.007
-179.221
-182.163
-184.732
-186.848
-188.464
-189.574
-190.221
-190.455
-190.324
-189.871
-189.146
-188.223
-187.203
-186.204
-185.326
-184.641
-184.174
-183.954
-184.07
-184.544
-185.308
-186.176
-186.76
-186.71
-185.836
-183.935
-180.684
-175.875
-169.442
-161.541
-152.889
-144.132
-135.405
-127.033
-119.639
-113.56
-108.903
-104.35
-96.627
-83.236
-63.641
-40.398
-17.537
3.404
24.362
53.155
98.115
162.845
247.534
343.427
436.704
515.237
565.085
576.168
546.412
476.113
372.862
252.795
132.043
28.163
-45.72
-89.173
-109.171
-116.173
-118.352
-115.872
-102.977
-76.771
-41.739
-6.682
16.524
22.86
17.026
4.717
-6.646
-13.859
-20.02
-26.065
-32.673
-39.586
-43.668
-43.687
-40.048
-33.216
-24.73
-16.125
-7.907
-0.477
5.734
10.712
14.481
17.08
18.854
20.228
21.41
22.541
23.732
24.983
26.351
27.934
29.766
31.855
34.208
36.827
39.724
42.918
46.409
50.164
54.143
58.3
62.593
66.99
71.458
75.958
80.443
84.867
89.183
93.355
97.362
101.186
104.816
108.247
111.476
114.51
117.364
120.05
122.577
124.954
127.187
129.285
131.261
133.126
134.895
136.579
138.192
139.744
141.248
142.715
144.157
145.583
147.001
148.422
149.856
151.314
152.809
154.351
155.951
157.62
159.367
161.201
163.131
165.162
167.299
169.549
171.913
174.395
176.996
179.718
182.562
185.525
188.606
191.804
195.114
198.532
202.052
205.668
209.373
213.16
217.02
220.945
224.925
228.952
233.015
237.103
241.207
245.314
249.414
253.494
257.543
261.548
265.499
269.383
273.189
276.907
280.527
284.038
287.43
290.695
293.823
296.806
299.634
302.302
304.8
307.124
309.266
311.222
312.987
314.557
315.93
317.101
318.07
318.834
319.392
319.744
319.89
319.831
319.569
319.107
318.447
317.593
316.55
315.323
313.916
312.335
310.586
308.676
306.609
304.394
302.038
299.548
296.932
294.2
291.358
288.416
285.384
282.269
279.082
275.83
272.524
269.172
265.783
262.367
258.933
255.491
252.05
248.619
245.206
241.822
238.472
235.167
231.912
228.716
225.586
222.529
219.553
216.663
213.867
211.172
208.583
206.107
203.749
201.514
199.408
197.433
195.595
193.897
192.342
190.933
189.672
188.561
187.602
186.796
186.142
185.641
185.291
185.091
185.04
185.135
185.373
185.752
186.268
186.917
187.697
188.601
189.626
190.765
192.012
193.36
194.802
196.33
197.936
199.611
201.346
203.132
204.959
206.819
208.7
210.593
212.488
214.374
216.241
218.08
219.88
221.631
223.326
224.954
226.507
227.977
229.356
230.637
231.813
232.877
233.822
234.643
235.334
235.891
236.309
236.586
236.72
236.708
236.551
236.248
235.8
235.21
234.48
233.614
232.616
231.491
230.245
228.885
227.418
225.851
224.194
222.454
220.642
218.765
216.835
214.859
212.85
210.816
208.767
206.715
204.668
202.639
200.637
198.672
196.756
194.897
193.107
191.393
189.765
188.231
186.799
185.476
184.269
183.182
182.222
181.391
180.694
180.133
179.709
179.424
179.278
179.27
179.399
179.663
180.06
180.586
181.239
182.015
182.908
183.915
185.029
186.245
187.556
188.955
190.436
191.99
193.608
195.283
197.005
198.765
200.555
202.364
204.184
206.004
207.817
209.613
211.385
213.122
214.819
216.466
218.058
219.588
221.049
222.436
223.743
224.965
226.097
227.134
228.074
228.912
229.645
230.269
230.783
231.184
231.47
231.642
231.697
231.638
231.464
231.177
230.779
230.274
229.663
228.952
228.144
227.244
226.256
225.185
224.037
222.815
221.526
220.174
218.764
217.301
215.791
214.238
212.647
211.025
209.376
207.705
206.02
204.324
202.623
200.923
199.229
197.547
195.882
194.239
192.622
191.037
189.488
187.978
186.511
185.089
183.715
182.391
181.118
179.9
178.737
177.63
176.583
175.597
174.675
173.819
173.032
172.317
171.676
171.111
170.624
170.217
169.889
169.64
169.472
169.383
169.375
169.449
169.606
169.848
170.178
170.596
171.103
171.7
172.385
173.158
174.014
174.953
175.972
177.072
178.256
179.525
180.875
182.299
183.787
185.321
186.883
188.45
189.998
191.508
192.963
194.359
195.695
196.976
198.203
199.373
200.473
201.492
202.424
203.265
204.014
204.682
205.288
205.856
206.424
207.011
207.627
208.258
208.87
209.422
209.866
210.167
210.302
210.254
210.011
209.566
208.923
208.072
206.994
205.66
204.021
202.052
199.748
197.133
194.261
191.204
188.041
184.849
181.689
178.603
175.619
172.744
169.946
167.203
164.495
161.81
159.18
156.618
154.099
151.581
148.994
146.262
143.342
140.178
136.658
132.732
128.429
123.907
119.475
115.414
111.907
109.159
107.494
107.219
108.466
110.989
114.283
117.912
121.506
124.713
126.852
126.884
125.297
124.383
125.998
132.142
141.339
148.012
151.417
153.675
161.148
186.802
236.229
309.133
402.202
502.912
599.511
681.329
734.829
752.839
733.27
678.51
597.084
496.478
383.776
266.822
155.41
63.178
-0.891
-35.008
-46.057
-48.563
-51.989
-59.199
-68.182
-72.778
-71.303
-66.319
-60.696
-57.923
-59.49
-64.884
-73.776
-85.627
-99.589
-114.825
-130.621
-146.249
-161.009
-174.513
-186.362
-196.273
-204.366
-210.952
-216.337
-220.987
-225.476
-230.145
-235.278
-241.057
-247.419
-254.251
-261.428
-268.692
-275.708
-282.238
-288.092
-293.158
-297.441
-300.936
-303.633
-305.561
-306.764
-307.282
-307.157
-306.414
-305.059
-303.115
-300.618
-297.615
-294.167
-290.331
-286.157
-281.688
-276.957
-271.992
-266.817
-261.451
-255.909
-250.201
-244.333
-238.317
-232.166
-225.891
-219.501
-213.004
-206.4
-199.696
-192.893
-185.999
-179.019
-171.959
-164.826
-157.624
-150.362
-143.046
-135.681
-128.272
-120.821
-113.331
-105.802
-98.234
-90.629
-82.987
-75.308
-67.591
-59.837
-52.047
-44.221
-36.36
-28.467
-20.543
-12.589
-4.608
3.396
11.421
19.462
27.516
35.576
43.639
51.698
59.746
67.778
75.786
83.762
91.7
99.589
107.421
115.187
122.877
130.48
137.986
145.382
152.657
159.8
166.799
173.643
180.318
186.816
193.123
199.23
205.127
210.804
216.249
221.455
226.412
231.112
235.549
239.717
243.61
247.223
250.553
253.597
256.357
258.827
261.007
262.896
264.49
265.797
266.824
267.576
268.059
268.284
268.256
267.991
267.504
266.8
265.885
264.768
263.453
261.958
260.3
258.494
256.558
254.5
252.325
250.048
247.683
245.237
242.719
240.129
237.466
234.757
232.025
229.293
226.585
223.909
221.27
218.683
216.156
213.705
211.348
209.089
206.929
204.887
202.976
201.215
199.625
198.19
196.889
195.713
194.643
193.677
192.813
192.037
191.336
190.701
190.119
189.587
189.104
188.648
188.202
187.746
187.255
186.737
186.199
185.639
185.058
184.453
183.815
183.147
182.452
181.722
180.951
180.13
179.249
178.311
177.318
176.27
175.172
174.012
172.781
171.475
170.087
168.612
167.046
165.382
163.613
161.736
159.752
157.658
155.454
153.132
150.686
148.111
145.4
142.546
139.544
136.386
133.067
129.58
125.917
122.075
118.044
113.821
109.397
104.764
99.914
94.836
89.524
83.973
78.182
72.147
65.864
59.332
52.549
45.517
38.239
30.708
22.921
14.872
6.556
-2.02
-10.849
-19.926
-29.241
-38.794
-48.586
-58.608
-68.849
-79.307
-89.974
-100.851
-111.94
-123.212
-134.642
-146.205
-157.872
-169.63
-181.47
-193.369
-205.312
-217.276
-229.233
-241.171
-253.077
-264.922
-276.683
-288.329
-299.826
-311.178
-322.394
-333.47
-344.412
-355.21
-365.853
-376.344
-386.685
-396.873
-406.911
-416.791
-426.508
-436.074
-445.499
-454.797
-463.987
-473.055
-481.991
-490.794
-499.456
-507.98
-516.372
-524.627
-532.74
-540.718
-548.568
-556.297
-563.915
-571.419
-578.809
-586.083
-593.239
-600.287
-607.237
-614.093
-620.862
-627.549
-634.156
-640.691
-647.16
-653.564
-659.9
-666.169
-672.368
-678.499
-684.564
-690.563
-696.495
-702.359
-708.152
-713.875
-719.526
-725.102
-730.603
-736.024
-741.364
-746.62
-751.793
-756.881
-761.881
-766.793
-771.613
-776.341
-780.975
-785.514
-789.954
-794.293
-798.528
-802.657
-806.677
-810.583
-814.372
-818.038
-821.577
-824.986
-828.26
-831.396
-834.389
-837.236
-839.935
-842.482
-844.874
-847.105
-849.172
-851.067
-852.785
-854.321
-855.667
-856.817
-857.764
-858.499
-859.021
-859.323
-859.399
-859.241
-858.84
-858.188
-857.284
-856.13
-854.727
-853.082
-851.202
-849.1
-846.799
-844.318
-841.674
-838.884
-835.952
-832.884
-829.689
-826.374
-822.951
-819.423
-815.78
-812.01
-808.106
-804.055
-799.846
-795.461
-790.864
-786.026
-780.936
-775.585
-769.986
-764.163
-758.135
-751.929
-745.584
-739.146
-732.68
-726.265
-719.958
-713.816
-707.894
-702.246
-696.942
-692.04
-687.572
-683.557
-679.996
-676.873
-674.173
-671.869
-669.908
-668.226
-666.75
-665.383
-664.055
-662.713
-661.302
-659.778
-658.098
-656.234
-654.193
-651.993
-649.657
-647.201
-644.625
-641.942
-639.199
-636.45
-633.751
-631.168
-628.718
-626.421
-624.352
-622.493
-620.719
-618.778
-616.227
-612.629
-607.676
-601.022
-592.298
-581.406
-568.472
-554.059
-539.266
-525.052
-512.14
-501.284
-492.964
-487.055
-482.914
-478.888
-472.45
-461.41
-443.566
-416.54
-378.804
-329.628
-270.103
-204.084
-134.786
-64.643
4.544
72.892
135.229
183.485
211.678
212.488
186.965
141.25
76.992
1.055
-80.278
-160.377
-223.489
-260.201
-268.691
-253.23
-228.255
-204.213
-184.843
-169.892
-154.375
-136.48
-117.631
-99.576
-84.764
-73.555
-64.611
-56.814
-48.74
-39.177
-27.722
-14.241
1.108
17.776
35.217
52.982
70.55
87.403
103.234
117.881
131.302
143.592
154.828
165.028
174.248
182.566
190.036
196.738
202.765
208.191
213.12
217.66
221.902
225.944
229.89
233.799
237.72
241.686
245.718
249.858
254.144
258.589
263.194
267.94
272.79
277.712
282.667
287.602
292.47
297.216
301.778
306.124
310.233
314.091
317.691
321.018
324.054
326.801
329.267
331.463
333.407
335.111
336.589
337.868
338.977
339.947
340.816
341.608
342.341
343.036
343.706
344.369
345.04
345.729
346.442
347.187
347.974
348.813
349.716
350.689
351.736
352.861
354.066
355.356
356.734
358.202
359.761
361.415
363.165
365.012
366.958
369.003
371.144
373.378
375.701
378.108
380.592
383.149
385.769
388.445
391.17
393.935
396.732
399.552
402.385
405.222
408.052
410.864
413.648
416.391
419.083
421.712
424.267
426.737
429.111
431.377
433.527
435.55
437.437
439.179
440.768
442.197
443.459
444.547
445.458
446.187
446.73
447.086
447.252
447.228
447.014
446.61
446.018
445.239
444.277
443.134
441.816
440.327
438.673
436.861
434.899
432.794
430.555
428.191
425.714
423.132
420.456
417.698
414.868
411.978
409.039
406.061
403.055
400.032
397.001
393.972
390.953
387.954
384.982
382.045
379.148
376.298
373.5
370.76
368.082
365.469
362.924
360.45
358.05
355.723
353.47
351.291
349.185
347.15
345.184
343.283
341.445
339.665
337.939
336.262
334.627
333.031
331.467
329.93
328.414
326.913
325.423
323.938
322.453
320.965
319.468
317.959
316.436
314.894
313.331
311.744
310.132
308.492
306.823
305.124
303.393
301.63
299.834
298.007
296.147
294.257
292.338
290.391
288.418
286.421
284.403
282.367
280.316
278.253
276.181
274.103
272.024
269.946
267.871
265.805
263.747
261.702
259.671
257.656
255.659
253.681
251.723
249.787
247.874
245.984
244.119
242.279
240.465
238.677
236.916
235.182
233.475
231.795
230.142
228.514
226.913
225.336
223.783
222.254
220.746
219.259
217.791
216.34
214.905
213.484
212.076
210.678
209.29
207.911
206.539
205.173
203.813
202.457
201.105
199.756
198.408
197.062
195.715
194.368
193.018
191.665
190.309
188.947
187.578
186.202
184.817
183.421
182.014
180.595
179.161
177.711
176.246
174.764
173.264
171.745
170.207
168.65
167.072
165.474
163.854
162.212
160.548
158.861
157.15
155.414
153.655
151.87
150.06
148.225
146.363
144.476
142.563
140.624
138.66
136.67
134.656
132.619
130.559
128.477
126.375
124.254
122.115
119.96
117.789
115.605
113.407
111.199
108.98
106.752
104.517
102.275
100.027
97.776
95.521
93.264
91.006
88.747
86.489
84.233
81.98
79.731
77.487
75.249
73.018
70.795
68.582
66.378
64.185
62.003
59.833
57.675
55.531
53.401
51.286
49.187
47.105
45.042
42.998
40.976
38.977
37.002
35.055
33.137
31.252
29.402
27.592
25.826
24.107
22.44
20.83
19.281
17.799
16.387
15.052
13.799
12.632
11.557
10.581
9.708
8.944
8.296
7.768
7.367
7.096
6.96
6.964
7.111
7.406
7.851
8.449
9.201
10.11
11.175
12.396
13.772
15.299
16.975
18.794
20.75
22.835
25.04
27.357
29.774
32.28
34.863
37.51
40.207
42.943
45.701
48.468
51.226
53.96
56.652
59.288
61.851
64.324
66.69
68.931
71.033
72.985
74.772
76.383
77.805
79.019
80.015
80.787
81.327
81.636
81.71
81.552
81.173
80.595
79.846
78.951
77.934
76.814
75.611
74.352
73.068
71.794
70.556
69.374
68.262
67.231
66.29
65.44
64.658
63.886
63.053
62.082
60.913
59.504
57.819
55.821
53.454
50.656
47.393
43.662
39.486
34.868
29.76
24.178
18.254
12.305
6.776
2.058
-1.536
-3.65
-3.907
-2.1
1.794
7.262
13.43
19.733
25.363
29.318
31.251
30.953
29.372
29.896
34.488
43.534
56.989
71.296
86.317
107.133
138.735
189.467
263.365
354.224
451.514
537.923
595.212
614.517
593.84
539.514
463.226
372.482
273.666
172.942
77.656
0.389
-49.986
-71.656
-70.777
-61.215
-52.94
-50.087
-51.774
-52.848
-51.857
-50.249
-49.798
-53.002
-60.012
-69.202
-79.342
-88.952
-96.783
-102.492
-105.929
-107.191
-106.824
-105.385
-103.351
-101.292
-99.706
-98.834
-98.8
-99.596
-101.083
-103.157
-105.724
-108.656
-111.838
-115.174
-118.591
-122.041
-125.467
-128.792
-131.929
-134.79
-137.316
-139.481
-141.271
-142.686
-143.738
-144.443
-144.834
-144.951
-144.829
-144.506
-144.015
-143.389
-142.668
-141.894
-141.109
-140.356
-139.665
-139.052
-138.528
-138.099
-137.76
-137.509
-137.337
-137.228
-137.173
-137.162
-137.186
-137.237
-137.307
-137.382
-137.452
-137.504
-137.527
-137.511
-137.447
-137.325
-137.139
-136.882
-136.546
-136.127
-135.618
-135.013
-134.303
-133.481
-132.541
-131.477
-130.282
-128.953
-127.484
-125.875
-124.123
-122.228
-120.191
-118.012
-115.695
-113.242
-110.656
-107.943
-105.108
-102.156
-99.096
-95.934
-92.679
-89.341
-85.929
-82.454
-78.925
-75.354
-71.752
-68.131
-64.502
-60.879
-57.274
-53.699
-50.168
-46.693
-43.287
-39.962
-36.732
-33.607
-30.599
-27.719
-24.976
-22.38
-19.94
-17.662
-15.555
-13.625
-11.878
-10.317
-8.949
-7.774
-6.797
-6.017
-5.436
-5.052
-4.865
-4.873
-5.071
-5.457
-6.025
-6.77
-7.686
-8.765
-9.999
-11.379
-12.896
-14.538
-16.296
-18.159
-20.114
-22.15
-24.257
-26.421
-28.632
-30.878
-33.147
-35.429
-37.713
-39.988
-42.243
-44.47
-46.66
-48.803
-50.891
-52.918
-54.876
-56.76
-58.565
-60.284
-61.916
-63.455
-64.9
-66.25
-67.502
-68.658
-69.718
-70.683
-71.557
-72.341
-73.04
-73.656
-74.196
-74.662
-75.06
-75.395
-75.671
-75.894
-76.068
-76.199
-76.292
-76.35
-76.379
-76.383
-76.364
-76.327
-76.275
-76.21
-76.135
-76.052
-75.961
-75.865
-75.763
-75.657
-75.546
-75.429
-75.305
-75.173
-75.029
-74.872
-74.697
-74.501
-74.281
-74.032
-73.75
-73.431
-73.07
-72.663
-72.206
-71.696
-71.127
-70.498
-69.804
-69.043
-68.212
-67.31
-66.336
-65.287
-64.165
-62.969
-61.7
-60.358
-58.945
-57.463
-55.915
-54.302
-52.628
-50.897
-49.114
-47.282
-45.409
-43.498
-41.557
-39.592
-37.61
-35.618
-33.623
-31.633
-29.656
-27.697
-25.766
-23.869
-22.013
-20.205
-18.452
-16.759
-15.132
-13.576
-12.095
-10.694
-9.375
-8.142
-6.997
-5.942
-4.978
-4.107
-3.328
-2.643
-2.05
-1.548
-1.137
-0.813
-0.574
-0.417
-0.339
-0.335
-0.401
-0.532
-0.724
-0.971
-1.267
-1.606
-1.983
-2.391
-2.824
-3.276
-3.742
-4.214
-4.689
-5.16
-5.622
-6.072
-6.505
-6.916
-7.302
-7.659
-7.983
-8.273
-8.524
-8.734
-8.901
-9.022
-9.097
-9.122
-9.097
-9.02
-8.892
-8.711
-8.477
-8.19
-7.85
-7.459
-7.016
-6.523
-5.982
-5.394
-4.762
-4.086
-3.369
-2.614
-1.821
-0.995
-0.135
0.754
1.672
2.616
3.584
4.572
5.58
6.604
7.641
8.689
9.744
10.804
11.865
12.924
13.977
15.021
16.051
17.065
18.058
19.027
19.968
20.878
21.752
22.589
23.385
24.137
24.843
25.5
26.105
26.658
27.155
27.594
27.974
28.293
28.551
28.745
28.875
28.941
28.942
28.878
28.75
28.558
28.304
27.989
27.615
27.184
26.7
26.165
25.583
24.957
24.293
23.593
22.862
22.105
21.325
20.527
19.716
18.896
18.07
17.244
16.421
15.606
14.803
14.015
13.247
12.502
11.784
11.095
10.44
9.821
9.24
8.701
8.205
7.756
7.354
7.001
6.699
6.448
6.248
6.1
6.004
5.96
5.966
6.022
6.128
6.284
6.487
6.738
7.037
7.382
7.773
8.209
8.69
9.214
9.782
10.392
11.044
11.738
12.474
13.25
14.067
14.925
15.822
16.757
17.73
18.74
19.786
20.866
21.979
23.124
24.3
25.503
26.734
27.99
29.267
30.563
31.874
33.197
34.526
35.857
37.182
38.495
39.79
41.058
42.292
43.485
44.627
45.712
46.732
47.679
48.545
49.322
50.002
50.576
51.036
51.375
51.587
51.663
51.601
51.396
51.049
50.557
49.918
49.126
48.177
47.069
45.804
44.384
42.814
41.104
39.272
37.346
35.353
33.32
31.274
29.234
27.221
25.262
23.388
21.634
20.035
18.614
17.393
16.39
15.617
15.074
14.723
14.504
14.353
14.211
14.049
13.836
13.514
13.019
12.278
11.221
9.815
8.013
5.723
2.922
-0.326
-3.847
-7.276
-10.226
-12.422
-13.54
-13.209
-11.249
-7.674
-2.819
2.524
7.585
11.857
14.819
15.957
15.139
12.744
9.872
8.454
10.442
17.599
31.773
54.767
88.156
131.543
182.236
237.195
293
349.217
408.567
469.416
526.984
572.235
591.283
577.336
530.362
454.758
361.743
261.768
164.323
80.653
18.493
-19.23
-35.297
-39.108
-39.755
-41.744
-45.315
-46.923
-44.604
-39.89
-35.293
-33.59
-35.907
-41.403
-48.898
-57.265
-65.332
-72.091
-76.986
-79.788
-80.654
-80.08
-78.531
-76.404
-74.198
-72.382
-71.194
-70.718
-70.887
-71.525
-72.515
-73.782
-75.228
-76.763
-78.328
-79.874
-81.373
-82.805
-84.118
-85.248
-86.146
-86.797
-87.231
-87.51
-87.689
-87.81
-87.915
-88.023
-88.154
-88.306
-88.451
-88.568
-88.646
-88.686
-88.706
-88.73
-88.765
-88.809
-88.838
-88.807
-88.681
-88.434
-88.037
-87.483
-86.769
-85.91
-84.949
-83.923
-82.854
-81.76
-80.64
-79.491
-78.316
-77.117
-75.892
-74.654
-73.41
-72.163
-70.923
-69.688
-68.451
-67.197
-65.899
-64.53
-63.073
-61.515
-59.846
-58.064
-56.165
-54.147
-52.015
-49.774
-47.424
-44.968
-42.405
-39.739
-36.976
-34.124
-31.194
-28.199
-25.15
-22.059
-18.94
-15.802
-12.66
-9.523
-6.401
-3.307
-0.252
2.753
5.692
8.552
11.319
13.978
16.516
18.916
21.166
23.25
25.155
26.869
28.379
29.674
30.743
31.577
32.167
32.504
32.582
32.397
31.943
31.213
30.205
28.913
27.344
25.503
23.395
21.024
18.401
15.531
12.43
9.11
5.579
1.844
-2.088
-6.21
-10.502
-14.945
-19.52
-24.207
-28.995
-33.874
-38.825
-43.828
-48.873
-53.945
-59.037
-64.146
-69.237
-74.279
-79.246
-84.104
-88.842
-93.448
-97.901
-102.188
-106.288
-110.18
-113.857
-117.312
-120.524
-123.477
-126.15
-128.518
-130.596
-132.404
-133.948
-135.247
-136.302
-137.115
-137.701
-138.072
-138.24
-138.217
-138.008
-137.619
-137.073
-136.39
-135.595
-134.715
-133.748
-132.693
-131.555
-130.338
-129.052
-127.708
-126.308
-124.854
-123.356
-121.824
-120.269
-118.703
-117.126
-115.536
-113.936
-112.322
-110.704
-109.091
-107.488
-105.898
-104.325
-102.77
-101.238
-99.734
-98.255
-96.797
-95.359
-93.937
-92.53
-91.14
-89.766
-88.405
-87.055
-85.714
-84.38
-83.051
-81.726
-80.402
-79.077
-77.75
-76.422
-75.093
-73.764
-72.436
-71.11
-69.788
-68.47
-67.16
-65.859
-64.569
-63.292
-62.031
-60.789
-59.57
-58.377
-57.212
-56.08
-54.984
-53.926
-52.912
-51.942
-51.022
-50.153
-49.338
-48.58
-47.882
-47.246
-46.673
-46.166
-45.726
-45.354
-45.051
-44.817
-44.653
-44.559
-44.534
-44.578
-44.69
-44.87
-45.117
-45.43
-45.806
-46.246
-46.746
-47.306
-47.921
-48.591
-49.312
-50.082
-50.897
-51.755
-52.653
-53.586
-54.552
-55.546
-56.566
-57.607
-58.664
-59.735
-60.814
-61.898
-62.981
-64.06
-65.13
-66.187
-67.225
-68.24
-69.227
-70.179
-71.092
-71.96
-72.777
-73.538
-74.236
-74.866
-75.421
-75.896
-76.286
-76.584
-76.785
-76.883
-76.873
-76.75
-76.509
-76.146
-75.655
-75.034
-74.278
-73.385
-72.351
-71.175
-69.853
-68.385
-66.77
-65.006
-63.095
-61.035
-58.83
-56.479
-53.986
-51.354
-48.587
-45.688
-42.664
-39.518
-36.258
-32.889
-29.419
-25.855
-22.206
-18.48
-14.687
-10.835
-6.935
-2.997
0.968
4.95
8.938
12.922
16.89
20.832
24.736
28.592
32.39
36.118
39.766
43.324
46.782
50.131
53.362
56.466
59.433
62.257
64.931
67.446
69.797
71.976
73.98
75.803
77.441
78.892
80.151
81.219
82.094
82.778
83.272
83.58
83.703
83.645
83.411
83.005
82.433
81.698
80.805
79.762
78.575
77.253
75.805
74.239
72.567
70.798
68.945
67.021
65.037
63.003
60.933
58.84
56.74
54.651
52.59
50.565
48.585
46.657
44.785
42.969
41.202
39.471
37.765
36.076
34.399
32.732
31.073
29.412
27.744
26.062
24.365
22.665
20.977
19.321
17.725
16.23
14.882
13.741
12.851
12.242
11.936
11.94
12.259
12.896
13.845
15.089
16.603
18.343
20.249
22.252
24.259
26.161
27.847
29.196
30.111
30.521
30.373
29.639
28.308
26.379
23.862
20.774
17.132
12.967
8.346
3.379
-1.795
-7.022
-12.171
-17.135
-21.808
-26.07
-29.866
-33.247
-36.358
-39.385
-42.41
-45.35
-48.097
-50.661
-53.038
-55.151
-56.763
-57.494
-57.176
-56.002
-54.301
-52.281
-50.113
-47.936
-46.05
-45.042
-45.282
-46.699
-48.972
-51.744
-54.652
-57.479
-59.895
-61.087
-60.472
-57.869
-53.311
-47.226
-38.969
-26.576
-8.975
14.496
41.427
65.953
86.313
102.415
118.203
144.866
187.166
246.879
324.207
407.602
486.369
550.423
583.118
575.808
525.678
431.865
307.425
171.227
40.83
-62.965
-128.72
-156.752
-151.704
-126.294
-92.74
-59.178
-33.584
-18.662
-16.015
-24.377
-37.092
-49.789
-58.214
-61.012
-62.104
-63.303
-65.414
-68.491
-70.266
-69.928
-68.016
-65.016
-61.832
-59.119
-57.048
-55.733
-55.258
-55.547
-56.431
-57.788
-59.51
-61.484
-63.628
-65.865
-68.086
-70.213
-72.186
-73.918
-75.348
-76.436
-77.155
-77.507
-77.508
-77.179
-76.551
-75.663
-74.552
-73.253
-71.799
-70.222
-68.562
-66.863
-65.171
-63.534
-61.985
-60.548
-59.24
-58.066
-57.027
-56.118
-55.328
-54.641
-54.044
-53.526
-53.076
-52.685
-52.338
-52.022
-51.72
-51.416
-51.094
-50.739
-50.335
-49.869
-49.328
-48.698
-47.969
-47.13
-46.169
-45.075
-43.835
-42.437
-40.87
-39.123
-37.185
-35.049
-32.705
-30.147
-27.37
-24.371
-21.148
-17.698
-14.022
-10.122
-6
-1.66
2.894
7.655
12.616
17.77
23.106
28.616
34.287
40.107
46.065
52.146
58.336
64.62
70.983
77.408
83.879
90.379
96.892
103.398
109.881
116.323
122.705
129.009
135.219
141.317
147.285
153.108
158.769
164.253
169.546
174.633
179.501
184.138
188.532
192.671
196.544
200.143
203.458
206.482
209.207
211.627
213.738
215.535
217.015
218.176
219.018
219.541
219.745
219.634
219.211
218.48
217.449
216.123
214.512
212.623
210.467
208.054
205.397
202.508
199.398
196.083
192.575
188.888
185.038
181.04
176.907
172.657
168.304
163.864
159.352
154.784
150.175
145.54
140.894
136.25
131.623
127.025
122.47
117.967
113.53
109.167
104.889
100.703
96.617
92.638
88.771
85.021
81.391
77.885
74.505
71.251
68.125
65.127
62.255
59.509
56.886
54.384
51.999
49.729
47.569
45.515
43.562
41.705
39.939
38.259
36.658
35.132
33.675
32.281
30.945
29.661
28.424
27.23
26.072
24.948
23.852
22.78
21.728
20.693
19.672
18.659
17.654
16.652
15.65
14.645
13.635
12.616
11.586
10.542
9.48
8.399
7.295
6.165
5.006
3.817
2.593
1.331
0.03
-1.315
-2.706
-4.148
-5.642
-7.193
-8.804
-10.478
-12.219
-14.029
-15.913
-17.873
-19.913
-22.034
-24.239
-26.53
-28.909
-31.378
-33.936
-36.585
-39.325
-42.154
-45.071
-48.076
-51.164
-54.335
-57.584
-60.908
-64.303
-67.764
-71.287
-74.865
-78.493
-82.164
-85.871
-89.607
-93.365
-97.136
-100.912
-104.685
-108.447
-112.189
-115.902
-119.578
-123.207
-126.783
-130.296
-133.739
-137.103
-140.383
-143.571
-146.66
-149.646
-152.523
-155.287
-157.934
-160.459
-162.862
-165.138
-167.286
-169.306
-171.196
-172.957
-174.589
-176.092
-177.47
-178.724
-179.857
-180.872
-181.774
-182.566
-183.253
-183.839
-184.331
-184.734
-185.053
-185.294
-185.465
-185.57
-185.617
-185.612
-185.561
-185.471
-185.347
-185.195
-185.021
-184.831
-184.629
-184.421
-184.212
-184.007
-183.809
-183.624
-183.454
-183.304
-183.177
-183.074
-183
-182.956
-182.944
-182.964
-183.02
-183.11
-183.236
-183.397
-183.594
-183.826
-184.093
-184.392
-184.722
-185.083
-185.471
-185.885
-186.322
-186.78
-187.257
-187.748
-188.252
-188.765
-189.284
-189.805
-190.326
-190.842
-191.35
-191.846
-192.326
-192.786
-193.223
-193.634
-194.013
-194.358
-194.666
-194.932
-195.154
-195.328
-195.451
-195.52
-195.532
-195.485
-195.375
-195.201
-194.96
-194.649
-194.268
-193.814
-193.285
-192.681
-191.999
-191.238
-190.398
-189.477
-188.473
-187.388
-186.219
-184.966
-183.629
-182.208
-180.703
-179.114
-177.44
-175.682
-173.839
-171.912
-169.9
-167.803
-165.62
-163.352
-160.999
-158.561
-156.038
-153.43
-150.736
-147.958
-145.096
-142.149
-139.119
-136.005
-132.808
-129.53
-126.171
-122.734
-119.219
-115.63
-111.968
-108.236
-104.439
-100.578
-96.659
-92.685
-88.662
-84.595
-80.49
-76.353
-72.193
-68.018
-63.837
-59.661
-55.501
-51.368
-47.274
-43.233
-39.256
-35.356
-31.545
-27.834
-24.236
-20.763
-17.428
-14.245
-11.226
-8.384
-5.731
-3.278
-1.035
0.989
2.791
4.365
5.709
6.816
7.677
8.284
8.632
8.72
8.547
8.119
7.445
6.545
5.446
4.177
2.768
1.246
-0.369
-2.054
-3.78
-5.517
-7.222
-8.858
-10.393
-11.798
-13.047
-14.128
-15.045
-15.828
-16.536
-17.223
-17.932
-18.705
-19.585
-20.629
-21.909
-23.491
-25.427
-27.781
-30.64
-34.045
-37.977
-42.294
-46.698
-50.856
-54.469
-57.208
-58.728
-58.787
-57.302
-54.513
-51.055
-47.609
-44.725
-42.869
-42.432
-43.65
-46.422
-49.932
-52.598
-52.594
-48.212
-37.784
-19.636
7.863
46.162
94.39
149.282
207.748
266.35
325.179
388.273
454.565
520.083
575.443
603.19
594.231
545.721
460.333
354.488
242.389
137.478
55.424
-0.085
-29.326
-37.369
-37.719
-37.345
-38.672
-41.599
-40.725
-34.846
-26.638
-18.451
-13.444
-12.735
-15.141
-19.512
-24.711
-29.429
-32.643
-33.833
-32.786
-29.707
-25.146
-19.587
-13.454
-7.313
-1.679
3.175
7.126
10.242
12.691
14.556
15.911
16.856
17.504
17.972
18.348
18.687
19.035
19.448
20.001
20.78
21.83
23.149
24.718
26.483
28.421
30.544
32.841
35.294
37.875
40.539
43.253
46.001
48.75
51.466
54.11
56.633
59.016
61.268
63.404
65.455
67.429
69.307
71.08
72.753
74.329
75.819
77.229
78.55
79.788
80.961
82.087
83.189
84.278
85.352
86.412
87.456
88.493
89.545
90.626
91.747
92.921
94.159
95.473
96.884
98.4
100.023
101.756
103.6
105.557
107.634
109.834
112.157
114.602
117.166
119.843
122.631
125.524
128.513
131.591
134.747
137.972
141.258
144.595
147.973
151.381
154.806
158.237
161.662
165.068
168.44
171.766
175.031
178.223
181.326
184.329
187.218
189.98
192.604
195.077
197.389
199.53
201.49
203.263
204.84
206.214
207.381
208.335
209.073
209.591
209.887
209.961
209.812
209.441
208.85
208.042
207.02
205.789
204.354
202.721
200.896
198.887
196.701
194.349
191.84
189.184
186.392
183.475
180.447
177.318
174.102
170.811
167.457
164.053
160.61
157.142
153.66
150.176
146.702
143.249
139.828
136.451
133.128
129.867
126.68
123.573
120.556
117.637
114.821
112.116
109.528
107.063
104.725
102.518
100.446
98.513
96.719
95.066
93.555
92.186
90.958
89.869
88.918
88.104
87.423
86.873
86.45
86.153
85.976
85.916
85.969
86.13
86.394
86.757
87.213
87.758
88.387
89.094
89.875
90.724
91.635
92.604
93.624
94.69
95.797
96.938
98.109
99.303
100.516
101.744
102.98
104.221
105.463
106.701
107.931
109.149
110.35
111.531
112.688
113.816
114.911
115.971
116.991
117.968
118.899
119.78
120.607
121.378
122.09
122.739
123.323
123.839
124.286
124.66
124.962
125.189
125.34
125.415
125.414
125.336
125.181
124.948
124.639
124.254
123.793
123.256
122.646
121.964
121.211
120.39
119.502
118.55
117.537
116.466
115.34
114.162
112.936
111.666
110.356
109.009
107.631
106.225
104.797
103.349
101.886
100.413
98.932
97.448
95.964
94.483
93.007
91.54
90.084
88.64
87.212
85.802
84.409
83.037
81.686
80.356
79.048
77.763
76.501
75.259
74.039
72.839
71.657
70.492
69.342
68.205
67.079
65.96
64.846
63.733
62.62
61.503
60.378
59.243
58.095
56.932
55.75
54.548
53.324
52.077
50.804
49.506
48.181
46.829
45.45
44.044
42.612
41.154
39.672
38.167
36.642
35.099
33.54
31.969
30.389
28.805
27.219
25.637
24.062
22.501
20.957
19.436
17.944
16.486
15.067
13.695
12.372
11.106
9.901
8.761
7.691
6.694
5.775
4.935
4.178
3.506
2.92
2.422
2.012
1.69
1.456
1.307
1.244
1.262
1.359
1.532
1.776
2.086
2.459
2.888
3.369
3.894
4.457
5.052
5.671
6.307
6.952
7.598
8.237
8.863
9.466
10.041
10.58
11.077
11.524
11.918
12.251
12.518
12.717
12.842
12.891
12.861
12.75
12.559
12.286
11.934
11.503
10.996
10.416
9.766
9.052
8.276
7.445
6.565
5.642
4.682
3.693
2.683
1.66
0.632
-0.393
-1.405
-2.396
-3.356
-4.279
-5.154
-5.974
-6.731
-7.416
-8.023
-8.544
-8.972
-9.303
-9.531
-9.651
-9.66
-9.556
-9.337
-9.004
-8.555
-7.993
-7.32
-6.538
-5.652
-4.666
-3.585
-2.416
-1.165
0.16
1.552
2.999
4.493
6.02
7.568
9.124
10.675
12.206
13.703
15.153
16.541
17.857
19.086
20.217
21.236
22.129
22.885
23.492
23.941
24.222
24.328
24.25
23.984
23.529
22.885
22.047
21.009
19.757
18.285
16.593
14.685
12.565
10.238
7.711
5.001
2.142
-0.835
-3.899
-7.023
-10.187
-13.364
-16.513
-19.585
-22.526
-25.29
-27.859
-30.223
-32.36
-34.261
-35.926
-37.374
-38.672
-39.907
-41.149
-42.469
-43.936
-45.599
-47.556
-49.969
-52.91
-56.377
-60.293
-64.437
-68.647
-72.888
-77.008
-80.731
-83.919
-86.466
-88.414
-90.235
-92.28
-94.547
-97.182
-100.307
-103.668
-107.068
-110.421
-112.986
-113.709
-112.098
-106.436
-93.693
-73.565
-46.433
-13.531
18.375
46.841
76.168
110.23
159.925
232.926
320.84
411.302
484.863
520.05
512.042
464.795
387.856
296.017
198.232
99.969
8.591
-67.68
-121.077
-146.341
-145.776
-128.098
-103.761
-83.462
-72.65
-72.904
-82.568
-95.48
-107.508
-115.566
-118.901
-121.08
-124.053
-128.465
-133.817
-137.701
-139.044
-138.036
-135.112
-131.164
-126.777
-122.215
-117.897
-114.125
-111.014
-108.579
-106.719
-105.363
-104.476
-104.008
-103.881
-104
-104.288
-104.699
-105.196
-105.714
-106.175
-106.499
-106.602
-106.442
-106.002
-105.272
-104.261
-102.983
-101.456
-99.71
-97.785
-95.716
-93.543
-91.299
-89.017
-86.737
-84.497
-82.338
-80.301
-78.412
-76.684
-75.128
-73.742
-72.525
-71.472
-70.573
-69.812
-69.177
-68.656
-68.24
-67.919
-67.682
-67.516
-67.407
-67.342
-67.308
-67.293
-67.289
-67.284
-67.268
-67.234
-67.173
-67.079
-66.945
-66.762
-66.521
-66.215
-65.835
-65.374
-64.826
-64.184
-63.442
-62.597
-61.644
-60.582
-59.41
-58.125
-56.727
-55.218
-53.599
-51.871
-50.038
-48.102
-46.069
-43.942
-41.727
-39.43
-37.056
-34.613
-32.107
-29.545
-26.937
-24.289
-21.61
-18.909
-16.195
-13.477
-10.765
-8.068
-5.396
-2.759
-0.167
2.369
4.839
7.233
9.542
11.755
13.863
15.856
17.726
19.464
21.061
22.511
23.805
24.937
25.901
26.691
27.302
27.73
27.971
28.021
27.878
27.541
27.009
26.281
25.359
24.243
22.937
21.443
19.766
17.909
15.88
13.683
11.326
8.818
6.167
3.383
0.476
-2.544
-5.664
-8.872
-12.157
-15.507
-18.908
-22.348
-25.814
-29.294
-32.775
-36.245
-39.691
-43.101
-46.464
-49.768
-53.004
-56.161
-59.23
-62.202
-65.069
-67.824
-70.46
-72.971
-75.352
-77.598
-79.706
-81.672
-83.494
-85.171
-86.703
-88.091
-89.335
-90.439
-91.403
-92.233
-92.932
-93.503
-93.953
-94.286
-94.507
-94.623
-94.639
-94.562
-94.398
-94.153
-93.834
-93.446
-92.996
-92.489
-91.931
-91.327
-90.682
-90.002
-89.291
-88.554
-87.795
-87.02
-86.232
-85.435
-84.632
-83.828
-83.024
-82.223
-81.428
-80.641
-79.863
-79.097
-78.344
-77.604
-76.881
-76.174
-75.484
-74.813
-74.161
-73.528
-72.917
-72.327
-71.759
-71.215
-70.695
-70.201
-69.733
-69.294
-68.883
-68.502
-68.152
-67.833
-67.545
-67.288
-67.063
-66.868
-66.705
-66.571
-66.465
-66.388
-66.337
-66.312
-66.309
-66.328
-66.365
-66.42
-66.489
-66.57
-66.66
-66.756
-66.856
-66.955
-67.051
-67.14
-67.219
-67.284
-67.331
-67.358
-67.36
-67.335
-67.279
-67.189
-67.064
-66.901
-66.698
-66.455
-66.17
-65.844
-65.476
-65.067
-64.619
-64.132
-63.609
-63.053
-62.464
-61.847
-61.205
-60.54
-59.855
-59.155
-58.444
-57.725
-57.004
-56.284
-55.569
-54.866
-54.177
-53.508
-52.861
-52.241
-51.652
-51.095
-50.573
-50.09
-49.646
-49.243
-48.882
-48.562
-48.283
-48.045
-47.846
-47.684
-47.556
-47.459
-47.392
-47.35
-47.331
-47.333
-47.351
-47.386
-47.433
-47.49
-47.553
-47.62
-47.685
-47.746
-47.798
-47.833
-47.85
-47.844
-47.814
-47.76
-47.681
-47.579
-47.456
-47.314
-47.157
-46.988
-46.808
-46.618
-46.418
-46.213
-46.008
-45.811
-45.627
-45.457
-45.303
-45.165
-45.041
-44.923
-44.799
-44.648
-44.454
-44.211
-43.918
-43.582
-43.211
-42.808
-42.382
-41.938
-41.485
-41.036
-40.6
-40.177
-39.778
-39.418
-39.126
-38.952
-38.929
-39.071
-39.382
-39.851
-40.464
-41.21
-42.066
-42.993
-43.955
-44.912
-45.832
-46.704
-47.501
-48.19
-48.722
-49.017
-49.007
-48.653
-47.921
-46.786
-45.227
-43.215
-40.737
-37.825
-34.516
-30.846
-26.854
-22.555
-17.972
-13.152
-8.157
-3.081
1.976
6.939
11.724
16.235
20.37
24.009
27.051
29.458
31.211
32.303
32.729
32.471
31.518
29.889
27.623
24.778
21.424
17.63
13.471
9.056
4.512
-0.023
-4.432
-8.658
-12.694
-16.545
-20.225
-23.747
-27.109
-30.334
-33.473
-36.578
-39.723
-42.964
-46.323
-49.876
-53.751
-58.033
-62.745
-67.743
-72.668
-77.209
-81.15
-84.204
-86.028
-86.314
-84.859
-81.902
-78.153
-74.207
-70.331
-66.965
-64.811
-64.352
-65.941
-68.139
-67.582
-62.921
-53.952
-41.776
-29.493
-13.964
10.793
48.248
103.637
173.878
251.788
336.175
420.279
497.935
562.78
599.339
598.913
560.614
487.717
392.426
286.721
178.494
78.023
-4.622
-63.653
-94.531
-101.386
-95.157
-82.44
-70.904
-63.035
-56.63
-54.16
-54.013
-55.116
-58.279
-60.77
-63.647
-68.135
-73.424
-79.809
-85.608
-89.259
-90.936
-90.828
-89.577
-87.958
-86.258
-84.798
-83.999
-84.048
-84.969
-86.681
-89.012
-91.811
-94.977
-98.399
-101.935
-105.486
-108.968
-112.299
-115.41
-118.217
-120.652
-122.677
-124.276
-125.446
-126.194
-126.54
-126.515
-126.164
-125.529
-124.65
-123.563
-122.304
-120.915
-119.444
-117.937
-116.442
-114.993
-113.612
-112.316
-111.117
-110.018
-109.017
-108.107
-107.275
-106.512
-105.811
-105.165
-104.568
-104.011
-103.482
-102.971
-102.466
-101.956
-101.432
-100.882
-100.298
-99.67
-98.992
-98.256
-97.456
-96.585
-95.636
-94.601
-93.472
-92.242
-90.905
-89.454
-87.883
-86.189
-84.368
-82.419
-80.339
-78.13
-75.792
-73.327
-70.739
-68.031
-65.209
-62.277
-59.243
-56.112
-52.895
-49.599
-46.234
-42.81
-39.338
-35.829
-32.296
-28.75
-25.203
-21.668
-18.157
-14.683
-11.257
-7.893
-4.603
-1.398
1.709
4.707
7.583
10.327
12.929
15.379
17.668
19.788
21.731
23.491
25.062
26.437
27.613
28.585
29.35
29.905
30.248
30.379
30.297
30.002
29.497
28.783
27.863
26.742
25.422
23.909
22.208
20.326
18.269
16.045
13.662
11.129
8.455
5.651
2.727
-0.306
-3.437
-6.654
-9.946
-13.301
-16.708
-20.153
-23.627
-27.116
-30.608
-34.093
-37.557
-40.991
-44.382
-47.721
-50.996
-54.198
-57.318
-60.346
-63.273
-66.092
-68.794
-71.372
-73.82
-76.132
-78.302
-80.325
-82.199
-83.919
-85.483
-86.89
-88.139
-89.228
-90.159
-90.931
-91.545
-92.003
-92.307
-92.458
-92.46
-92.316
-92.027
-91.598
-91.032
-90.332
-89.5
-88.541
-87.458
-86.253
-84.931
-83.494
-81.946
-80.289
-78.528
-76.665
-74.702
-72.644
-70.491
-68.246
-65.911
-63.488
-60.978
-58.383
-55.705
-52.945
-50.103
-47.182
-44.182
-41.105
-37.951
-34.722
-31.42
-28.046
-24.603
-21.092
-17.518
-13.884
-10.193
-6.451
-2.662
1.168
5.034
8.931
12.85
16.786
20.732
24.678
28.619
32.544
36.445
40.313
44.14
47.915
51.63
55.275
58.84
62.318
65.698
68.972
72.13
75.164
78.066
80.828
83.443
85.905
88.208
90.348
92.32
94.123
95.754
97.213
98.499
99.613
100.558
101.336
101.951
102.408
102.713
102.873
102.896
102.789
102.563
102.227
101.791
101.265
100.661
99.989
99.261
98.488
97.681
96.853
96.014
95.176
94.348
93.542
92.766
92.028
91.338
90.701
90.123
89.61
89.164
88.79
88.488
88.259
88.104
88.02
88.004
88.054
88.163
88.326
88.536
88.785
89.065
89.368
89.683
90.001
90.313
90.607
90.874
91.104
91.285
91.41
91.467
91.448
91.346
91.152
90.86
90.464
89.96
89.345
88.617
87.773
86.815
85.742
84.558
83.267
81.872
80.38
78.799
77.136
75.402
73.606
71.76
69.876
67.967
66.045
64.125
62.22
60.344
58.512
56.737
55.034
53.417
51.897
50.489
49.202
48.049
47.038
46.179
45.478
44.944
44.58
44.392
44.381
44.55
44.899
45.428
46.132
47.01
48.057
49.265
50.63
52.142
53.792
55.572
57.471
59.478
61.582
63.769
66.029
68.347
70.711
73.107
75.522
77.944
80.359
82.756
85.124
87.45
89.725
91.94
94.084
96.149
98.127
100.012
101.795
103.473
105.039
106.489
107.82
109.029
110.114
111.07
111.898
112.594
113.158
113.586
113.877
114.027
114.037
113.903
113.625
113.2
112.627
111.905
111.033
110.011
108.838
107.509
106.025
104.38
102.575
100.604
98.465
96.155
93.671
91.011
88.178
85.172
81.994
78.643
75.115
71.409
67.531
63.484
59.273
54.91
50.407
45.786
41.08
36.32
31.538
26.762
22.013
17.315
12.699
8.193
3.833
-0.352
-4.34
-8.107
-11.629
-14.894
-17.9
-20.667
-23.252
-25.709
-28.088
-30.437
-32.774
-35.127
-37.544
-40.07
-42.745
-45.608
-48.664
-51.938
-55.501
-59.363
-63.446
-67.555
-71.332
-74.409
-76.504
-77.31
-76.442
-73.627
-68.803
-62.224
-54.564
-46.574
-38.792
-31.701
-25.892
-21.771
-19.222
-17.463
-14.94
-9.805
-0.331
15.174
38.635
72.083
115.528
166.78
223.496
282.545
343.899
411.016
481.995
551.274
609.028
640.376
638.562
604.463
542.002
459.56
364.133
261.537
163.001
83.322
32.782
14.859
22.27
38.637
52.65
60.336
63.905
70.434
82.403
97.645
112.786
123.91
129.602
130.214
126.289
119.009
109.606
99.369
89.719
81.374
74.645
69.924
67.317
66.647
67.555
69.256
70.868
71.959
72.298
71.676
70.086
67.567
64.207
60.332
56.326
52.417
48.766
45.484
42.588
40.116
38.108
36.537
35.366
34.575
34.144
34.068
34.352
34.984
35.94
37.191
38.698
40.421
42.322
44.362
46.511
48.748
51.053
53.415
55.823
58.271
60.759
63.285
65.847
68.444
71.074
73.735
76.431
79.166
81.941
84.757
87.617
90.517
93.459
96.442
99.463
102.519
105.608
108.724
111.867
115.034
118.224
121.433
124.661
127.905
131.163
134.434
137.715
141.002
144.293
147.583
150.868
154.144
157.406
160.65
163.87
167.061
170.218
173.333
176.403
179.418
182.374
185.263
188.077
190.809
193.452
195.999
198.442
200.773
202.986
205.074
207.03
208.846
210.518
212.038
213.401
214.602
215.636
216.497
217.183
217.689
218.012
218.151
218.104
217.869
217.445
216.832
216.031
215.042
213.867
212.508
210.969
209.252
207.363
205.306
203.086
200.711
198.187
195.522
192.723
189.8
186.761
183.616
180.375
177.048
173.646
170.18
166.661
163.099
159.507
155.893
152.271
148.651
145.044
141.461
137.912
134.409
130.961
127.579
124.272
121.05
117.92
114.892
111.973
109.169
106.487
103.933
101.511
99.226
97.081
95.078
93.219
91.506
89.937
88.512
87.23
86.089
85.086
84.218
83.482
82.872
82.385
82.016
81.76
81.61
81.561
81.606
81.739
81.952
82.239
82.591
83.003
83.466
83.973
84.518
85.091
85.688
86.299
86.919
87.54
88.156
88.76
89.347
89.91
90.445
90.946
91.409
91.829
92.203
92.525
92.793
93.003
93.15
93.231
93.243
93.183
93.047
92.832
92.535
92.155
91.687
91.13
90.482
89.739
88.899
87.96
86.92
85.778
84.53
83.176
81.714
80.143
78.462
76.671
74.77
72.757
70.632
68.396
66.049
63.59
61.022
58.344
55.559
52.668
49.673
46.578
43.386
40.1
36.723
33.26
29.715
26.093
22.398
18.637
14.813
10.933
7.004
3.031
-0.98
-5.021
-9.087
-13.172
-17.27
-21.374
-25.481
-29.585
-33.681
-37.765
-41.833
-45.882
-49.909
-53.91
-57.883
-61.827
-65.739
-69.62
-73.47
-77.289
-81.077
-84.837
-88.571
-92.281
-95.97
-99.642
-103.3
-106.949
-110.594
-114.239
-117.89
-121.554
-125.235
-128.941
-132.677
-136.449
-140.262
-144.12
-148.029
-151.993
-156.013
-160.091
-164.23
-168.43
-172.691
-177.015
-181.399
-185.845
-190.349
-194.913
-199.533
-204.207
-208.93
-213.698
-218.502
-223.335
-228.189
-233.054
-237.92
-242.774
-247.604
-252.401
-257.155
-261.855
-266.486
-271.031
-275.476
-279.813
-284.034
-288.134
-292.112
-295.968
-299.706
-303.342
-306.888
-310.356
-313.756
-317.086
-320.342
-323.523
-326.628
-329.661
-332.617
-335.478
-338.22
-340.826
-343.274
-345.542
-347.602
-349.403
-350.903
-352.073
-352.895
-353.377
-353.539
-353.4
-352.988
-352.339
-351.502
-350.55
-349.569
-348.628
-347.8
-347.155
-346.765
-346.732
-347.146
-348.069
-349.543
-351.575
-354.141
-357.22
-360.78
-364.759
-369.088
-373.669
-378.382
-383.132
-387.828
-392.379
-396.707
-400.711
-404.294
-407.396
-409.989
-412.088
-413.745
-415.013
-415.942
-416.595
-417.049
-417.41
-417.803
-418.329
-419.07
-420.082
-421.422
-423.201
-425.472
-428.182
-431.177
-434.137
-436.701
-438.592
-439.47
-438.903
-436.644
-432.669
-427.178
-420.84
-414.385
-408.336
-403.404
-400.327
-399.306
-399.998
-401.562
-402.359
-400.392
-393.787
-380.171
-356.908
-323.593
-282.197
-234.645
-183.599
-128.238
-63.507
9.646
84.809
148.604
181.57
174.727
130.061
58.203
-24.536
-109.597
-193.653
-273.889
-345.784
-400.045
-429.784
-435.735
-426.015
-411.441
-399.6
-392.194
-386.205
-379.498
-372.071
-365.199
-361.247
-360.696
-362.31
-364.938
-367.099
-367.591
-366.115
-362.57
-357.071
-350.172
-342.448
-334.365
-326.448
-319.156
-312.693
-307.156
-302.539
-298.69
-295.481
-292.802
-290.51
-288.47
-286.578
-284.73
-282.83
-280.796
-278.528
-275.947
-273.005
-269.673
-265.944
-261.826
-257.334
-252.496
-247.352
-241.944
-236.309
-230.486
-224.513
-218.433
-212.3
-206.164
-200.081
-194.088
-188.213
-182.475
-176.886
-171.449
-166.164
-161.022
-156.01
-151.121
-146.346
-141.681
-137.12
-132.654
-128.274
-123.968
-119.725
-115.534
-111.385
-107.269
-103.176
-99.098
-95.029
-90.961
-86.889
-82.806
-78.704
-74.573
-70.405
-66.192
-61.925
-57.598
-53.203
-48.733
-44.186
-39.556
-34.843
-30.043
-25.155
-20.181
-15.121
-9.976
-4.75
0.553
5.93
11.375
16.881
22.44
28.045
33.686
39.352
45.034
50.719
56.395
62.05
67.67
73.242
78.751
84.183
89.524
94.758
99.871
104.849
109.677
114.341
118.829
123.127
127.223
131.107
134.767
138.193
141.378
144.314
146.992
149.407
151.555
153.432
155.034
156.361
157.412
158.187
158.689
158.921
158.887
158.592
158.042
157.246
156.212
154.949
153.469
151.783
149.902
147.842
145.614
143.234
140.716
138.076
135.328
132.489
129.575
126.601
123.583
120.536
117.477
114.421
111.381
108.372
105.408
102.502
99.666
96.912
94.25
91.692
89.247
86.923
84.729
82.672
80.759
78.994
77.382
75.928
74.633
73.5
72.53
71.724
71.082
70.602
70.284
70.125
70.123
70.275
70.576
71.023
71.611
72.336
73.191
74.173
75.276
76.495
77.824
79.259
80.793
82.423
84.142
85.945
87.828
89.784
91.809
93.897
96.043
98.243
100.492
102.784
105.115
107.48
109.875
112.295
114.736
117.192
119.66
122.134
124.611
127.087
129.558
132.019
134.467
136.899
139.31
141.697
144.056
146.382
148.673
150.922
153.127
155.283
157.387
159.434
161.42
163.343
165.199
166.984
168.695
170.331
171.888
173.364
174.757
176.065
177.287
178.423
179.471
180.431
181.303
182.088
182.786
183.397
183.923
184.364
184.721
184.997
185.191
185.308
185.348
185.314
185.209
185.037
184.8
184.502
184.147
183.737
183.276
182.767
182.215
181.621
180.99
180.324
179.627
178.901
178.149
177.373
176.576
175.76
174.926
174.075
173.209
172.328
171.434
170.527
169.608
168.677
167.734
166.779
165.812
164.832
163.837
162.828
161.802
160.757
159.693
158.608
157.5
156.367
155.208
154.021
152.805
151.558
150.278
148.965
147.617
146.231
144.808
143.345
141.842
140.297
138.711
137.083
135.413
133.7
131.944
130.146
128.308
126.429
124.511
122.557
120.57
118.554
116.511
114.447
112.364
110.267
108.161
106.048
103.931
101.814
99.7
97.595
95.502
93.428
91.378
89.359
87.377
85.441
83.558
81.735
79.978
78.294
76.691
75.178
73.767
72.466
71.278
70.205
69.247
68.397
67.65
66.992
66.401
65.86
65.353
64.869
64.403
63.944
63.484
63.017
62.533
62.031
61.525
61.025
60.552
60.136
59.811
59.62
59.621
59.854
60.35
61.129
62.196
63.554
65.199
67.109
69.256
71.602
74.088
76.657
79.234
81.721
84.019
86.019
87.6
88.673
89.166
89.016
88.19
86.661
84.43
81.533
78.022
73.959
69.414
64.468
59.215
53.788
48.336
43.013
37.964
33.299
29.1
25.436
22.387
20.022
18.294
17.116
16.368
15.907
15.719
15.819
16.078
16.31
16.45
16.446
16.409
16.586
16.948
17.402
18.019
18.926
20.237
22.018
24.033
25.793
26.996
27.431
26.88
25.121
21.921
17.354
11.959
6.434
1.63
-1.254
-1.224
3.662
16.694
38.774
69.446
107.093
145.256
181.196
218.061
258.707
312.13
384.26
466.983
549.019
612.774
639.175
624.759
573.547
493.771
398.04
293.779
186.878
87.85
9.253
-40.045
-57.471
-50.625
-34.755
-20.073
-10.536
-4.42
4.316
17.229
32.092
45.81
54.608
57.159
54.275
46.932
36.679
25.14
13.525
3.091
-5.291
-11.191
-14.437
-15.162
-13.784
-10.917
-7.286
-3.69
-0.673
1.43
2.437
2.372
1.331
-0.518
-2.925
-5.606
-8.348
-11.006
-13.491
-15.781
-17.871
-19.775
-21.502
-23.043
-24.391
-25.527
-26.443
-27.147
-27.647
-27.951
-28.079
-28.05
-27.898
-27.664
-27.375
-27.047
-26.687
-26.282
-25.845
-25.413
-25.009
-24.65
-24.344
-24.081
-23.863
-23.7
-23.59
-23.522
-23.483
-23.456
-23.433
-23.42
-23.418
-23.432
-23.456
-23.472
-23.464
-23.425
-23.344
-23.216
-23.028
-22.767
-22.423
-21.994
-21.478
-20.872
-20.171
-19.365
-18.445
-17.406
-16.244
-14.957
-13.544
-12.003
-10.332
-8.534
-6.609
-4.564
-2.399
-0.118
2.278
4.783
7.393
10.101
12.9
15.782
18.741
21.765
24.845
27.971
31.131
34.314
37.509
40.703
43.883
47.036
50.148
53.206
56.196
59.104
61.916
64.617
67.195
69.636
71.927
74.056
76.011
77.78
79.354
80.722
81.875
82.806
83.507
83.972
84.195
84.174
83.903
83.381
82.607
81.581
80.304
78.778
77.007
74.996
72.749
70.276
67.582
64.678
61.573
58.279
54.807
51.17
47.381
43.455
39.407
35.251
31.004
26.681
22.299
17.874
13.423
8.961
4.504
0.07
-4.328
-8.674
-12.953
-17.151
-21.254
-25.25
-29.126
-32.871
-36.475
-39.927
-43.22
-46.346
-49.297
-52.07
-54.658
-57.059
-59.269
-61.288
-63.114
-64.749
-66.192
-67.447
-68.516
-69.403
-70.113
-70.65
-71.022
-71.233
-71.29
-71.202
-70.976
-70.619
-70.14
-69.548
-68.851
-68.058
-67.179
-66.222
-65.196
-64.109
-62.971
-61.788
-60.57
-59.323
-58.054
-56.771
-55.48
-54.186
-52.895
-51.613
-50.344
-49.092
-47.861
-46.655
-45.477
-44.329
-43.212
-42.13
-41.083
-40.073
-39.1
-38.165
-37.269
-36.41
-35.589
-34.803
-34.053
-33.337
-32.653
-31.998
-31.373
-30.773
-30.199
-29.646
-29.115
-28.603
-28.107
-27.626
-27.158
-26.7
-26.252
-25.81
-25.374
-24.941
-24.51
-24.079
-23.647
-23.212
-22.773
-22.327
-21.874
-21.412
-20.938
-20.451
-19.951
-19.436
-18.904
-18.356
-17.789
-17.205
-16.602
-15.979
-15.336
-14.673
-13.989
-13.283
-12.556
-11.807
-11.036
-10.243
-9.429
-8.593
-7.735
-6.857
-5.957
-5.037
-4.097
-3.138
-2.159
-1.163
-0.151
0.877
1.918
2.971
4.033
5.103
6.178
7.257
8.337
9.417
10.494
11.566
12.631
13.686
14.73
15.76
16.772
17.766
18.738
19.686
20.609
21.503
22.368
23.201
24.001
24.765
25.491
26.178
26.823
27.425
27.982
28.494
28.959
29.377
29.747
30.068
30.342
30.567
30.743
30.871
30.951
30.982
30.965
30.901
30.79
30.632
30.429
30.181
29.889
29.554
29.177
28.759
28.299
27.799
27.259
26.68
26.063
25.408
24.717
23.992
23.232
22.44
21.617
20.762
19.878
18.965
18.024
17.057
16.063
15.044
14.002
12.937
11.852
10.748
9.627
8.491
7.34
6.179
5.008
3.83
2.647
1.463
0.281
-0.896
-2.064
-3.219
-4.358
-5.477
-6.571
-7.637
-8.671
-9.668
-10.624
-11.536
-12.399
-13.209
-13.961
-14.651
-15.275
-15.83
-16.311
-16.715
-17.04
-17.281
-17.438
-17.506
-17.486
-17.376
-17.174
-16.881
-16.497
-16.023
-15.461
-14.814
-14.085
-13.277
-12.395
-11.446
-10.434
-9.366
-8.25
-7.093
-5.904
-4.693
-3.47
-2.246
-1.034
0.155
1.308
2.413
3.456
4.427
5.314
6.107
6.796
7.368
7.813
8.12
8.279
8.281
8.119
7.784
7.27
6.578
5.705
4.652
3.419
1.998
0.386
-1.416
-3.408
-5.585
-7.941
-10.463
-13.131
-15.915
-18.783
-21.702
-24.639
-27.57
-30.467
-33.299
-36.03
-38.618
-41.022
-43.211
-45.16
-46.841
-48.244
-49.376
-50.267
-50.985
-51.597
-52.159
-52.728
-53.365
-54.135
-55.12
-56.392
-57.99
-59.956
-62.369
-65.268
-68.639
-72.373
-76.185
-79.764
-82.898
-85.347
-86.727
-86.757
-85.331
-82.565
-79.128
-75.68
-72.365
-69.487
-67.789
-67.803
-69.69
-72.034
-71.249
-64.305
-50.448
-32.692
-15.508
-0.74
13.705
37.441
80.791
148.841
242.473
350.706
456.096
542.821
594.749
603.798
572.226
505.264
411.527
301.866
184.616
70.243
-26.532
-94.496
-128.194
-129.96
-113.152
-93.08
-78.638
-73.131
-73.193
-72.939
-71.166
-69.067
-68.521
-71.843
-78.737
-87.353
-96.192
-103.751
-109.032
-111.872
-112.355
-110.747
-107.613
-103.56
-99.132
-94.853
-91.157
-88.258
-86.215
-85.005
-84.51
-84.616
-85.238
-86.276
-87.632
-89.247
-91.08
-93.091
-95.262
-97.543
-99.84
-102.074
-104.164
-106.024
-107.614
-108.909
-109.891
-110.568
-110.953
-111.058
-110.907
-110.523
-109.914
-109.092
-108.052
-106.799
-105.371
-103.803
-102.145
-100.456
-98.77
-97.112
-95.507
-93.965
-92.486
-91.075
-89.723
-88.419
-87.167
-85.97
-84.843
-83.797
-82.829
-81.931
-81.087
-80.273
-79.472
-78.669
-77.845
-76.988
-76.091
-75.147
-74.156
-73.12
-72.037
-70.9
-69.703
-68.436
-67.094
-65.673
-64.171
-62.587
-60.923
-59.178
-57.358
-55.464
-53.499
-51.465
-49.362
-47.191
-44.952
-42.65
-40.288
-37.87
-35.402
-32.89
-30.342
-27.766
-25.171
-22.566
-19.957
-17.355
-14.768
-12.204
-9.673
-7.184
-4.747
-2.37
-0.063
2.164
4.302
6.342
8.276
10.095
11.791
13.356
14.784
16.067
17.199
18.174
18.985
19.628
20.097
20.388
20.497
20.422
20.159
19.708
19.067
18.237
17.219
16.012
14.62
13.045
11.289
9.356
7.25
4.976
2.539
-0.056
-2.802
-5.693
-8.722
-11.881
-15.163
-18.56
-22.064
-25.665
-29.355
-33.124
-36.962
-40.86
-44.805
-48.789
-52.799
-56.826
-60.858
-64.885
-68.895
-72.877
-76.822
-80.718
-84.555
-88.323
-92.013
-95.614
-99.117
-102.514
-105.796
-108.955
-111.982
-114.871
-117.613
-120.202
-122.63
-124.892
-126.982
-128.893
-130.622
-132.163
-133.513
-134.668
-135.627
-136.388
-136.948
-137.309
-137.47
-137.432
-137.196
-136.765
-136.141
-135.328
-134.33
-133.152
-131.798
-130.273
-128.585
-126.739
-124.741
-122.598
-120.318
-117.908
-115.375
-112.73
-109.979
-107.132
-104.199
-101.188
-98.109
-94.973
-91.788
-88.565
-85.312
-82.04
-78.756
-75.47
-72.191
-68.926
-65.684
-62.472
-59.296
-56.164
-53.081
-50.052
-47.084
-44.179
-41.343
-38.578
-35.89
-33.28
-30.752
-28.307
-25.949
-23.679
-21.499
-19.408
-17.408
-15.498
-13.678
-11.947
-10.305
-8.75
-7.281
-5.897
-4.596
-3.376
-2.236
-1.174
-0.188
0.724
1.563
2.33
3.029
3.658
4.221
4.717
5.148
5.514
5.817
6.057
6.236
6.354
6.414
6.416
6.362
6.254
6.092
5.878
5.613
5.299
4.936
4.527
4.073
3.575
3.035
2.455
1.838
1.184
0.497
-0.221
-0.967
-1.74
-2.536
-3.351
-4.183
-5.029
-5.884
-6.745
-7.609
-8.472
-9.33
-10.18
-11.02
-11.847
-12.657
-13.45
-14.223
-14.973
-15.7
-16.402
-17.078
-17.727
-18.347
-18.938
-19.5
-20.032
-20.534
-21.008
-21.453
-21.87
-22.26
-22.624
-22.963
-23.28
-23.575
-23.851
-24.11
-24.354
-24.586
-24.807
-25.02
-25.226
-25.429
-25.628
-25.826
-26.022
-26.216
-26.409
-26.6
-26.786
-26.967
-27.14
-27.304
-27.454
-27.589
-27.705
-27.798
-27.865
-27.901
-27.902
-27.862
-27.779
-27.646
-27.458
-27.21
-26.898
-26.515
-26.057
-25.517
-24.892
-24.177
-23.365
-22.453
-21.437
-20.315
-19.083
-17.74
-16.286
-14.722
-13.049
-11.271
-9.391
-7.416
-5.352
-3.207
-0.987
1.296
3.634
6.016
8.431
10.868
13.316
15.761
18.191
20.59
22.946
25.244
27.471
29.613
31.654
33.579
35.378
37.039
38.551
39.904
41.086
42.082
42.884
43.489
43.892
44.096
44.101
43.912
43.541
43.01
42.343
41.56
40.68
39.714
38.68
37.598
36.491
35.392
34.326
33.307
32.35
31.47
30.671
29.96
29.326
28.723
28.101
27.415
26.625
25.718
24.694
23.526
22.182
20.617
18.785
16.678
14.326
11.723
8.82
5.626
2.231
-1.112
-3.964
-5.97
-6.944
-6.649
-4.779
-1.168
4.2
10.948
18.089
24.809
30.755
35.292
37.683
37.825
35.819
33.328
34.132
40.137
51.875
68.906
88.36
110.832
139.443
177.27
228.918
294.75
372.157
455.824
535.49
600.775
638.083
636.038
589.999
499.032
375.716
239.74
112.295
17.699
-34.409
-47.422
-32.878
-12.17
1.959
6.823
4.587
3.839
8.25
15.673
23.421
27.697
27.248
23.588
18.219
12.556
7.738
4.399
2.852
3.145
4.965
7.74
10.951
14.193
17.064
19.225
20.509
20.857
20.346
19.151
17.42
15.278
12.857
10.273
7.628
5.017
2.531
0.256
-1.741
-3.414
-4.734
-5.693
-6.288
-6.523
-6.424
-6.025
-5.364
-4.478
-3.398
-2.153
-0.783
0.671
2.16
3.638
5.069
6.433
7.712
8.898
9.986
10.975
11.873
12.695
13.449
14.143
14.781
15.368
15.91
16.418
16.901
17.367
17.825
18.28
18.74
19.211
19.698
20.204
20.732
21.285
21.865
22.479
23.13
23.824
24.565
25.358
26.207
27.117
28.09
29.129
30.235
31.41
32.653
33.965
35.347
36.796
38.313
39.896
41.543
43.253
45.021
46.846
48.724
50.65
52.622
54.634
56.681
58.758
60.859
62.979
65.111
67.248
69.384
71.51
73.621
75.707
77.76
79.774
81.74
83.649
85.495
87.268
88.964
90.573
92.088
93.504
94.813
96.01
97.087
98.04
98.862
99.549
100.095
100.495
100.746
100.843
100.784
100.565
100.185
99.641
98.932
98.058
97.019
95.816
94.451
92.925
91.243
89.408
87.424
85.296
83.031
80.633
78.109
75.467
72.714
69.857
66.905
63.865
60.746
57.557
54.307
51.004
47.658
44.278
40.874
37.456
34.032
30.612
27.205
23.822
20.469
17.157
13.893
10.686
7.543
4.471
1.476
-1.436
-4.258
-6.988
-9.619
-12.149
-14.574
-16.892
-19.099
-21.195
-23.178
-25.046
-26.798
-28.434
-29.953
-31.355
-32.642
-33.812
-34.867
-35.808
-36.637
-37.356
-37.966
-38.47
-38.87
-39.17
-39.373
-39.481
-39.499
-39.43
-39.277
-39.044
-38.736
-38.354
-37.903
-37.385
-36.805
-36.164
-35.467
-34.716
-33.915
-33.067
-32.176
-31.243
-30.274
-29.272
-28.241
-27.184
-26.106
-25.01
-23.9
-22.781
-21.657
-20.531
-19.407
-18.29
-17.181
-16.086
-15.006
-13.944
-12.903
-11.885
-10.892
-9.927
-8.993
-8.09
-7.221
-6.388
-5.593
-4.838
-4.124
-3.454
-2.828
-2.248
-1.716
-1.231
-0.796
-0.409
-0.072
0.215
0.454
0.644
0.787
0.884
0.935
0.943
0.909
0.834
0.719
0.565
0.374
0.145
-0.12
-0.42
-0.756
-1.126
-1.53
-1.967
-2.436
-2.938
-3.47
-4.034
-4.627
-5.248
-5.898
-6.574
-7.275
-8
-8.749
-9.519
-10.31
-11.12
-11.948
-12.794
-13.656
-14.535
-15.428
-16.336
-17.257
-18.19
-19.133
-20.085
-21.044
-22.008
-22.974
-23.939
-24.902
-25.859
-26.806
-27.742
-28.661
-29.562
-30.44
-31.293
-32.116
-32.907
-33.663
-34.381
-35.059
-35.692
-36.281
-36.821
-37.312
-37.751
-38.137
-38.468
-38.742
-38.958
-39.115
-39.211
-39.247
-39.221
-39.134
-38.985
-38.776
-38.507
-38.181
-37.799
-37.364
-36.878
-36.344
-35.767
-35.149
-34.494
-33.808
-33.095
-32.36
-31.607
-30.842
-30.071
-29.298
-28.53
-27.771
-27.027
-26.303
-25.604
-24.935
-24.3
-23.705
-23.153
-22.648
-22.196
-21.801
-21.465
-21.192
-20.987
-20.85
-20.784
-20.791
-20.872
-21.028
-21.258
-21.562
-21.94
-22.39
-22.91
-23.499
-24.152
-24.866
-25.636
-26.457
-27.322
-28.225
-29.157
-30.111
-31.079
-32.053
-33.025
-33.987
-34.932
-35.852
-36.741
-37.593
-38.399
-39.152
-39.844
-40.464
-41.006
-41.458
-41.813
-42.062
-42.196
-42.21
-42.099
-41.861
-41.491
-40.987
-40.342
-39.552
-38.613
-37.528
-36.299
-34.936
-33.451
-31.861
-30.192
-28.474
-26.726
-24.964
-23.2
-21.436
-19.673
-17.916
-16.164
-14.427
-12.715
-11.032
-9.389
-7.793
-6.237
-4.713
-3.193
-1.642
-0.041
1.612
3.311
5.023
6.711
8.333
9.833
11.172
12.318
13.243
13.935
14.387
14.585
14.511
14.131
13.396
12.275
10.761
8.859
6.608
4.062
1.289
-1.625
-4.603
-7.583
-10.518
-13.384
-16.176
-18.894
-21.547
-24.137
-26.649
-29.081
-31.435
-33.702
-35.912
-38.111
-40.361
-42.746
-45.337
-48.155
-51.219
-54.57
-58.165
-61.872
-65.47
-68.577
-70.83
-72.02
-71.9
-70.136
-66.569
-61.207
-54.301
-46.61
-38.915
-31.546
-24.882
-19.628
-16.018
-13.812
-12.488
-9.445
-2.08
9.939
28.132
52.146
80.99
117.433
160.886
211.625
270.49
333.897
402.1
470.729
531.792
578.573
597.213
581.168
529.813
443.876
337.326
223.132
114.511
29.196
-27.271
-54.675
-58.512
-53.766
-48.818
-46.407
-45.995
-41.723
-31.984
-19.421
-6.899
1.933
5.724
5.154
0.684
-6.719
-15.802
-25.327
-33.96
-40.953
-46.217
-49.742
-51.393
-51.24
-49.61
-47.148
-44.722
-42.834
-41.606
-41.109
-41.422
-42.578
-44.559
-47.163
-50.018
-52.876
-55.608
-58.116
-60.348
-62.243
-63.733
-64.811
-65.519
-65.89
-65.947
-65.708
-65.172
-64.358
-63.296
-62.018
-60.559
-58.96
-57.262
-55.509
-53.746
-52.007
-50.316
-48.692
-47.146
-45.683
-44.304
-43.004
-41.776
-40.613
-39.508
-38.456
-37.447
-36.471
-35.518
-34.578
-33.639
-32.693
-31.731
-30.744
-29.723
-28.664
-27.559
-26.405
-25.195
-23.926
-22.591
-21.185
-19.702
-18.137
-16.485
-14.741
-12.9
-10.96
-8.918
-6.772
-4.523
-2.171
0.282
2.835
5.484
8.226
11.054
13.966
16.953
20.009
23.128
26.301
29.519
32.775
36.058
39.36
42.669
45.976
49.272
52.544
55.784
58.979
62.121
65.197
68.198
71.113
73.931
76.644
79.24
81.711
84.048
86.243
88.288
90.176
91.901
93.457
94.839
96.042
97.063
97.898
98.544
99
99.265
99.337
99.216
98.904
98.401
97.71
96.834
95.774
94.536
93.123
91.542
89.797
87.894
85.84
83.643
81.308
78.845
76.262
73.566
70.766
67.872
64.891
61.833
58.707
55.521
52.284
49.006
45.694
42.357
39.005
35.645
32.286
28.936
25.603
22.295
19.02
15.784
12.595
9.458
6.381
3.368
0.426
-2.442
-5.23
-7.934
-10.55
-13.076
-15.507
-17.841
-20.075
-22.209
-24.238
-26.163
-27.981
-29.692
-31.294
-32.787
-34.169
-35.441
-36.602
-37.652
-38.592
-39.422
-40.144
-40.759
-41.269
-41.677
-41.983
-42.192
-42.306
-42.328
-42.261
-42.11
-41.877
-41.568
-41.186
-40.737
-40.224
-39.652
-39.027
-38.354
-37.637
-36.882
-36.094
-35.279
-34.441
-33.589
-32.726
-31.859
-30.995
-30.14
-29.299
-28.478
-27.683
-26.92
-26.194
-25.508
-24.869
-24.279
-23.743
-23.263
-22.843
-22.485
-22.19
-21.96
-21.796
-21.697
-21.663
-21.693
-21.787
-21.942
-22.157
-22.43
-22.758
-23.139
-23.569
-24.045
-24.563
-25.12
-25.71
-26.329
-26.974
-27.638
-28.317
-29.006
-29.701
-30.398
-31.09
-31.776
-32.449
-33.108
-33.747
-34.365
-34.958
-35.525
-36.063
-36.573
-37.054
-37.506
-37.93
-38.327
-38.698
-39.045
-39.37
-39.676
-39.966
-40.241
-40.506
-40.764
-41.018
-41.272
-41.531
-41.798
-42.078
-42.373
-42.688
-43.027
-43.392
-43.787
-44.216
-44.681
-45.184
-45.729
-46.317
-46.95
-47.629
-48.353
-49.123
-49.938
-50.796
-51.694
-52.631
-53.602
-54.606
-55.638
-56.693
-57.768
-58.857
-59.956
-61.058
-62.158
-63.251
-64.329
-65.388
-66.421
-67.424
-68.389
-69.314
-70.192
-71.02
-71.792
-72.505
-73.156
-73.739
-74.254
-74.696
-75.064
-75.357
-75.574
-75.716
-75.783
-75.778
-75.703
-75.56
-75.353
-75.085
-74.762
-74.388
-73.968
-73.507
-73.013
-72.491
-71.95
-71.395
-70.834
-70.275
-69.723
-69.187
-68.671
-68.181
-67.724
-67.303
-66.923
-66.589
-66.302
-66.067
-65.888
-65.766
-65.704
-65.703
-65.764
-65.887
-66.069
-66.31
-66.603
-66.943
-67.322
-67.735
-68.175
-68.636
-69.109
-69.587
-70.061
-70.527
-70.976
-71.398
-71.783
-72.111
-72.373
-72.563
-72.679
-72.724
-72.701
-72.606
-72.445
-72.226
-71.955
-71.63
-71.242
-70.769
-70.2
-69.532
-68.772
-67.934
-67.024
-66.032
-64.952
-63.773
-62.485
-61.085
-59.556
-57.866
-56.004
-53.981
-51.83
-49.611
-47.364
-45.111
-42.871
-40.654
-38.489
-36.417
-34.466
-32.662
-31.034
-29.604
-28.414
-27.523
-26.942
-26.657
-26.624
-26.767
-27.038
-27.407
-27.836
-28.285
-28.706
-29.041
-29.262
-29.353
-29.293
-29.075
-28.686
-28.111
-27.393
-26.584
-25.756
-25.02
-24.465
-24.16
-24.196
-24.646
-25.583
-27.134
-29.345
-32.158
-35.448
-38.956
-42.389
-45.538
-48.161
-49.879
-50.415
-49.723
-48.025
-45.949
-44.211
-43.252
-43.288
-44.665
-47.828
-52.618
-58.117
-62.954
-64.341
-59.729
-48.764
-29.897
-3.298
28.307
65.617
108.104
155.749
213.457
282.165
357.682
432.383
491.42
519.771
511.185
465.293
388.018
291.096
184.191
78.212
-13.1
-80.316
-118.167
-129.081
-124.808
-115.743
-107.711
-101.673
-92.953
-79.326
-62.507
-45.306
-31.753
-24.035
-21.888
-24.286
-29.512
-35.498
-40.688
-44.17
-45.421
-44.278
-40.76
-35.097
-27.913
-20.222
-12.929
-6.523
-1.227
2.921
5.882
7.624
8.297
8.232
7.745
7.018
6.139
5.14
4.088
3.102
2.251
1.545
0.97
0.513
0.174
-0.032
-0.113
-0.1
-0.034
0.047
0.112
0.134
0.083
-0.079
-0.392
-0.894
-1.613
-2.562
-3.749
-5.175
-6.834
-8.714
-10.799
-13.065
-15.488
-18.046
-20.717
-23.48
-26.314
-29.194
-32.095
-34.992
-37.86
-40.677
-43.418
-46.062
-48.588
-50.976
-53.207
-55.263
-57.128
-58.783
-60.21
-61.393
-62.314
-62.96
-63.314
-63.366
-63.103
-62.517
-61.601
-60.35
-58.759
-56.828
-54.555
-51.941
-48.99
-45.705
-42.093
-38.162
-33.921
-29.382
-24.557
-19.462
-14.112
-8.525
-2.719
3.287
9.471
15.813
22.291
28.882
35.563
42.309
49.096
55.9
62.697
69.46
76.167
82.792
89.312
95.705
101.948
108.019
113.899
119.566
125.002
130.189
135.109
139.746
144.086
148.115
151.82
155.193
158.222
160.902
163.225
165.188
166.786
168.018
168.884
169.385
169.523
169.302
168.728
167.806
166.546
164.955
163.046
160.829
158.316
155.522
152.459
149.143
145.589
141.815
137.836
133.671
129.338
124.855
120.242
115.517
110.701
105.811
100.867
95.889
90.893
85.9
80.926
75.99
71.108
66.296
61.57
56.946
52.437
48.057
43.818
39.731
35.807
32.056
28.487
25.107
21.923
18.942
16.167
13.605
11.256
9.123
7.208
5.509
4.026
2.757
1.699
0.847
0.197
-0.256
-0.518
-0.597
-0.499
-0.233
0.192
0.767
1.484
2.331
3.299
4.378
5.558
6.827
8.177
9.595
11.073
12.599
14.164
15.758
17.37
18.991
20.613
22.225
23.82
25.39
26.927
28.424
29.874
31.271
32.611
33.888
35.097
36.234
37.297
38.282
39.188
40.012
40.754
41.414
41.991
42.485
42.898
43.231
43.483
43.659
43.758
43.784
43.739
43.625
43.446
43.205
42.904
42.547
42.138
41.68
41.177
40.631
40.046
39.426
38.774
38.093
37.386
36.658
35.91
35.147
34.37
33.583
32.787
31.986
31.181
30.374
29.566
28.76
27.957
27.158
26.365
25.578
24.8
24.032
23.273
22.525
21.788
21.064
20.352
19.653
18.968
18.297
17.641
17
16.375
15.766
15.174
14.598
14.039
13.496
12.971
12.463
11.971
11.497
11.04
10.601
10.179
9.775
9.389
9.021
8.671
8.339
8.026
7.73
7.453
7.194
6.954
6.733
6.532
6.35
6.188
6.046
5.925
5.824
5.743
5.683
5.644
5.626
5.629
5.653
5.699
5.767
5.857
5.969
6.102
6.257
6.434
6.633
6.852
7.093
7.355
7.637
7.939
8.26
8.6
8.957
9.331
9.72
10.122
10.536
10.959
11.39
11.827
12.266
12.706
13.142
13.572
13.993
14.399
14.788
15.154
15.495
15.805
16.081
16.318
16.514
16.663
16.763
16.809
16.797
16.723
16.584
16.377
16.097
15.741
15.307
14.793
14.196
13.515
12.749
11.897
10.957
9.931
8.819
7.621
6.339
4.976
3.537
2.024
0.444
-1.197
-2.893
-4.634
-6.415
-8.225
-10.059
-11.908
-13.764
-15.619
-17.466
-19.296
-21.101
-22.87
-24.594
-26.259
-27.854
-29.367
-30.789
-32.109
-33.317
-34.405
-35.363
-36.188
-36.871
-37.405
-37.782
-37.988
-38.015
-37.861
-37.527
-37.02
-36.352
-35.535
-34.58
-33.507
-32.328
-31.053
-29.684
-28.212
-26.628
-24.932
-23.132
-21.246
-19.292
-17.276
-15.201
-13.071
-10.876
-8.611
-6.267
-3.818
-1.252
1.42
4.174
6.955
9.698
12.36
14.902
17.298
19.527
21.557
23.353
24.894
26.144
27.066
27.619
27.729
27.344
26.45
25.049
23.185
20.924
18.314
15.405
12.255
8.913
5.433
1.87
-1.743
-5.363
-8.936
-12.395
-15.648
-18.609
-21.234
-23.495
-25.393
-26.957
-28.219
-29.236
-30.098
-30.894
-31.709
-32.605
-33.631
-34.844
-36.319
-38.148
-40.419
-43.183
-46.468
-50.329
-54.758
-59.663
-64.866
-69.995
-74.661
-78.611
-81.577
-83.217
-83.366
-82.012
-79.333
-76.029
-72.723
-69.546
-66.825
-65.076
-64.473
-65.095
-65.611
-62.537
-52.94
-35.09
-10.861
14.115
35.793
52.152
69.368
100.614
155.719
242.083
353.473
467.941
563.781
618.67
619.342
571.578
484.666
370.234
244.9
118.765
3.609
-83.705
-135.966
-152.775
-140.464
-115.911
-93.141
-77.847
-72.01
-72.118
-72.249
-71.457
-69.592
-66.416
-65.337
-67.265
-71.576
-78.457
-85.263
-90.085
-92.994
-93.841
-93.162
-91.779
-89.76
-87.239
-84.977
-83.421
-82.701
-82.931
-83.926
-85.48
-87.624
-90.352
-93.422
-96.646
-99.883
-102.965
-105.856
-108.511
-110.826
-112.743
-114.246
-115.333
-116.029
-116.366
-116.356
-116.029
-115.424
-114.561
-113.472
-112.19
-110.745
-109.195
-107.601
-105.997
-104.403
-102.877
-101.462
-100.185
-99.079
-98.117
-97.24
-96.464
-95.831
-95.203
-94.418
-93.561
-92.613
-91.534
-90.645
-89.039
-85.831
-82.258
-78.691
-77.411
-81.157
-86.884
-92.562
-95.175
-90.574
-82.416
-73.799
-66.842
-65.055
-65.918
-66.878
-67.365
-65.821
-63.146
-60.497
-57.654
-54.765
-51.754
-48.389
-44.829
-41.199
-37.466
-33.627
-29.703
-25.699
-21.615
-17.455
-13.208
-8.857
-4.426
0.064
4.603
9.179
13.78
18.393
23.004
27.594
32.153
36.667
41.123
45.506
49.803
53.998
58.078
62.028
65.837
69.491
72.978
76.285
79.404
82.322
85.029
87.518
89.779
91.804
93.586
95.119
96.398
97.418
98.175
98.667
98.893
98.852
98.544
97.97
97.132
96.032
94.675
93.065
91.207
89.108
86.776
84.218
81.445
78.466
75.293
71.938
68.414
64.732
60.907
56.953
52.885
48.717
44.466
40.146
35.774
31.366
26.937
22.504
18.083
13.689
9.337
5.042
0.819
-3.318
-7.355
-11.281
-15.081
-18.744
-22.26
-25.618
-28.809
-31.825
-34.658
-37.302
-39.751
-42.002
-44.05
-45.894
-47.532
-48.964
-50.19
-51.212
-52.032
-52.654
-53.082
-53.321
-53.376
-53.255
-52.965
-52.513
-51.907
-51.157
-50.271
-49.259
-48.131
-46.897
-45.567
-44.152
-42.662
-41.107
-39.499
-37.847
-36.161
-34.451
-32.725
-30.994
-29.266
-27.549
-25.851
-24.18
-22.543
-20.945
-19.393
-17.892
-16.447
-15.062
-13.74
-12.485
-11.3
-10.186
-9.145
-8.178
-7.286
-6.47
-5.728
-5.061
-4.467
-3.943
-3.489
-3.103
-2.78
-2.52
-2.319
-2.174
-2.083
-2.041
-2.045
-2.092
-2.177
-2.299
-2.451
-2.632
-2.838
-3.064
-3.309
-3.569
-3.841
-4.122
-4.409
-4.701
-4.993
-5.284
-5.572
-5.855
-6.13
-6.397
-6.654
-6.901
-7.136
-7.359
-7.57
-7.768
-7.954
-8.128
-8.289
-8.439
-8.578
-8.706
-8.827
-8.94
-9.047
-9.15
-9.25
-9.35
-9.451
-9.555
-9.664
-9.779
-9.902
-10.036
-10.182
-10.341
-10.516
-10.708
-10.919
-11.151
-11.405
-11.682
-11.982
-12.308
-12.66
-13.038
-13.443
-13.876
-14.337
-14.826
-15.343
-15.888
-16.46
-17.058
-17.681
-18.328
-18.997
-19.686
-20.394
-21.118
-21.856
-22.607
-23.367
-24.135
-24.908
-25.685
-26.462
-27.238
-28.011
-28.779
-29.539
-30.291
-31.032
-31.761
-32.476
-33.176
-33.858
-34.522
-35.166
-35.789
-36.391
-36.97
-37.527
-38.06
-38.57
-39.057
-39.521
-39.963
-40.384
-40.784
-41.165
-41.528
-41.874
-42.205
-42.523
-42.826
-43.117
-43.395
-43.66
-43.91
-44.145
-44.363
-44.563
-44.745
-44.907
-45.048
-45.168
-45.267
-45.342
-45.392
-45.414
-45.405
-45.361
-45.276
-45.146
-44.966
-44.729
-44.429
-44.062
-43.624
-43.108
-42.51
-41.816
-41.021
-40.122
-39.118
-38.01
-36.802
-35.499
-34.109
-32.651
-31.142
-29.598
-28.031
-26.443
-24.836
-23.214
-21.585
-19.955
-18.326
-16.683
-15.008
-13.29
-11.515
-9.668
-7.727
-5.649
-3.401
-0.96
1.684
4.519
7.527
10.694
13.998
17.405
20.867
24.313
27.662
30.856
33.836
36.542
38.903
40.82
42.215
43.035
43.245
42.836
41.813
40.18
37.961
35.212
32.007
28.444
24.637
20.664
16.594
12.506
8.48
4.635
1.089
-2.085
-4.839
-7.154
-9.047
-10.508
-11.498
-12.098
-12.484
-12.843
-13.408
-14.261
-15.277
-16.453
-17.966
-19.844
-21.931
-23.96
-25.417
-26.038
-26.103
-25.728
-24.723
-23.017
-20.659
-17.862
-15.406
-13.912
-13.192
-13.151
-13.93
-15.497
-17.963
-21.329
-24.671
-26.725
-26.788
-23.956
-16.993
-4.763
14.383
42.494
79.745
124.055
173.744
226.742
282.499
344.457
413.12
483.755
548.614
594.26
607.744
585.059
525.294
431.946
317.124
191.961
72.445
-20.581
-78.215
-99.387
-92.966
-78.586
-67.642
-63.17
-62.856
-58.65
-47.773
-32.926
-17.774
-6.595
-1.101
-0.843
-5.002
-12.246
-21.268
-30.705
-39.207
-46.133
-51.202
-54.136
-54.953
-53.877
-51.323
-48.111
-45.096
-42.705
-41.156
-40.617
-41.082
-42.512
-44.814
-47.675
-50.723
-53.727
-56.525
-59.003
-61.137
-62.893
-64.233
-65.183
-65.786
-66.069
-66.066
-65.793
-65.257
-64.477
-63.486
-62.316
-61.016
-59.633
-58.211
-56.796
-55.423
-54.114
-52.888
-51.757
-50.726
-49.795
-48.958
-48.208
-47.539
-46.944
-46.418
-45.953
-45.538
-45.16
-44.807
-44.468
-44.132
-43.79
-43.432
-43.046
-42.626
-42.164
-41.652
-41.083
-40.45
-39.744
-38.958
-38.082
-37.11
-36.034
-34.848
-33.546
-32.123
-30.573
-28.896
-27.089
-25.15
-23.08
-20.879
-18.549
-16.092
-13.511
-10.808
-7.989
-5.058
-2.02
1.117
4.348
7.664
11.056
14.517
18.035
21.601
25.204
28.832
32.473
36.116
39.749
43.359
46.933
50.459
53.925
57.318
60.626
63.838
66.943
69.93
72.788
75.509
78.084
80.503
82.759
84.844
86.752
88.475
90.007
91.343
92.478
93.407
94.125
94.631
94.921
94.993
94.848
94.484
93.903
93.107
92.098
90.881
89.458
87.836
86.019
84.016
81.833
79.477
76.958
74.284
71.464
68.508
65.426
62.227
58.924
55.525
52.042
48.485
44.865
41.195
37.485
33.747
29.994
26.236
22.486
18.755
15.056
11.399
7.797
4.259
0.795
-2.585
-5.871
-9.056
-12.131
-15.089
-17.923
-20.629
-23.199
-25.631
-27.92
-30.062
-32.056
-33.899
-35.59
-37.127
-38.51
-39.738
-40.812
-41.732
-42.5
-43.117
-43.586
-43.908
-44.089
-44.131
-44.039
-43.819
-43.476
-43.016
-42.444
-41.768
-40.994
-40.127
-39.177
-38.148
-37.049
-35.885
-34.665
-33.395
-32.081
-30.73
-29.347
-27.94
-26.513
-25.073
-23.624
-22.173
-20.725
-19.285
-17.858
-16.451
-15.067
-13.712
-12.391
-11.106
-9.864
-8.665
-7.515
-6.415
-5.368
-4.376
-3.441
-2.564
-1.747
-0.99
-0.294
0.34
0.912
1.424
1.874
2.264
2.593
2.862
3.072
3.222
3.313
3.345
3.319
3.236
3.096
2.901
2.651
2.349
1.995
1.592
1.141
0.644
0.102
-0.483
-1.11
-1.775
-2.479
-3.218
-3.991
-4.796
-5.63
-6.493
-7.382
-8.295
-9.23
-10.186
-11.161
-12.153
-13.16
-14.178
-15.206
-16.24
-17.279
-18.318
-19.354
-20.385
-21.407
-22.418
-23.414
-24.393
-25.351
-26.285
-27.193
-28.072
-28.92
-29.733
-30.509
-31.247
-31.944
-32.6
-33.212
-33.781
-34.305
-34.783
-35.217
-35.604
-35.947
-36.244
-36.497
-36.707
-36.875
-37.003
-37.093
-37.148
-37.17
-37.164
-37.131
-37.076
-37.002
-36.914
-36.815
-36.711
-36.605
-36.502
-36.408
-36.325
-36.26
-36.217
-36.199
-36.212
-36.257
-36.339
-36.459
-36.621
-36.825
-37.074
-37.367
-37.705
-38.088
-38.516
-38.986
-39.498
-40.049
-40.637
-41.258
-41.909
-42.584
-43.281
-43.992
-44.713
-45.437
-46.158
-46.869
-47.562
-48.23
-48.865
-49.458
-50.001
-50.486
-50.904
-51.246
-51.506
-51.674
-51.744
-51.71
-51.565
-51.305
-50.924
-50.42
-49.789
-49.03
-48.141
-47.122
-45.973
-44.696
-43.293
-41.768
-40.124
-38.367
-36.503
-34.539
-32.486
-30.353
-28.151
-25.892
-23.589
-21.255
-18.904
-16.549
-14.202
-11.879
-9.593
-7.36
-5.195
-3.114
-1.13
0.744
2.495
4.112
5.584
6.905
8.071
9.075
9.911
10.564
11.024
11.283
11.335
11.18
10.821
10.264
9.521
8.613
7.567
6.409
5.166
3.859
2.51
1.148
-0.19
-1.457
-2.607
-3.602
-4.413
-5.016
-5.405
-5.585
-5.579
-5.437
-5.204
-4.937
-4.706
-4.575
-4.624
-4.932
-5.559
-6.603
-8.196
-10.39
-13.177
-16.44
-19.903
-23.317
-26.485
-29.117
-30.876
-31.535
-30.964
-29.375
-27.377
-25.491
-24.08
-23.482
-23.944
-25.612
-28.488
-31.867
-34.266
-34.143
-30.024
-20.367
-3.734
21.301
56.332
101.035
152.641
208.64
266.301
324.644
386.597
452.126
516.325
571.941
606.529
608.96
577.195
511.314
414.889
299.552
175.754
59.297
-28.036
-76.807
-86.206
-66.227
-38.842
-17.434
-6.688
-4.95
-3.532
1.005
7.263
13.073
14.899
12.043
6.283
-0.883
-7.723
-12.914
-16.148
-17.333
-16.636
-14.624
-11.868
-8.832
-6.01
-3.832
-2.483
-2.023
-2.398
-3.42
-4.927
-6.79
-8.869
-11.036
-13.202
-15.282
-17.203
-18.907
-20.323
-21.391
-22.082
-22.381
-22.289
-21.824
-21.008
-19.877
-18.472
-16.836
-15.006
-13.019
-10.909
-8.716
-6.487
-4.265
-2.098
-0.019
1.948
3.783
5.476
7.023
8.424
9.684
10.815
11.823
12.715
13.496
14.17
14.747
15.234
15.644
15.986
16.272
16.51
16.712
16.888
17.045
17.193
17.339
17.491
17.657
17.847
18.07
18.336
18.654
19.034
19.484
20.012
20.625
21.331
22.133
23.038
24.048
25.167
26.396
27.737
29.19
30.755
32.429
34.211
36.095
38.078
40.155
42.318
44.56
46.874
49.251
51.681
54.155
56.663
59.193
61.734
64.275
66.804
69.309
71.778
74.199
76.561
78.851
81.058
83.171
85.179
87.072
88.84
90.474
91.966
93.307
94.491
95.51
96.359
97.034
97.529
97.843
97.973
97.918
97.677
97.25
96.64
95.847
94.876
93.731
92.416
90.937
89.3
87.512
85.582
83.518
81.328
79.022
76.611
74.103
71.511
68.843
66.112
63.328
60.502
57.645
54.768
51.882
48.996
46.12
43.266
40.441
37.654
34.914
32.229
29.605
27.05
24.568
22.167
19.85
17.621
15.484
13.441
11.494
9.645
7.894
6.24
4.684
3.224
1.859
0.586
-0.597
-1.693
-2.705
-3.637
-4.493
-5.276
-5.99
-6.641
-7.231
-7.766
-8.249
-8.685
-9.078
-9.432
-9.751
-10.039
-10.298
-10.534
-10.749
-10.946
-11.129
-11.299
-11.46
-11.614
-11.762
-11.907
-12.051
-12.195
-12.34
-12.488
-12.639
-12.796
-12.959
-13.129
-13.308
-13.496
-13.694
-13.904
-14.128
-14.365
-14.619
-14.89
-15.18
-15.491
-15.824
-16.182
-16.565
-16.977
-17.418
-17.891
-18.397
-18.937
-19.514
-20.128
-20.782
-21.475
-22.21
-22.987
-23.806
-24.668
-25.573
-26.52
-27.508
-28.537
-29.605
-30.71
-31.85
-33.022
-34.223
-35.448
-36.696
-37.96
-39.235
-40.518
-41.801
-43.081
-44.35
-45.602
-46.833
-48.034
-49.201
-50.326
-51.404
-52.429
-53.395
-54.295
-55.126
-55.881
-56.556
-57.147
-57.65
-58.061
-58.379
-58.601
-58.726
-58.752
-58.68
-58.511
-58.245
-57.886
-57.435
-56.897
-56.276
-55.577
-54.805
-53.968
-53.071
-52.122
-51.128
-50.097
-49.037
-47.956
-46.863
-45.766
-44.674
-43.595
-42.537
-41.509
-40.519
-39.573
-38.68
-37.846
-37.076
-36.377
-35.755
-35.212
-34.753
-34.381
-34.097
-33.904
-33.802
-33.789
-33.866
-34.03
-34.277
-34.605
-35.01
-35.485
-36.027
-36.628
-37.284
-37.986
-38.729
-39.505
-40.307
-41.127
-41.958
-42.792
-43.624
-44.444
-45.247
-46.026
-46.775
-47.488
-48.159
-48.784
-49.358
-49.878
-50.341
-50.744
-51.086
-51.367
-51.585
-51.742
-51.839
-51.879
-51.865
-51.8
-51.688
-51.536
-51.346
-51.127
-50.883
-50.62
-50.346
-50.067
-49.789
-49.52
-49.264
-49.029
-48.82
-48.643
-48.504
-48.409
-48.36
-48.364
-48.424
-48.544
-48.725
-48.971
-49.283
-49.661
-50.105
-50.615
-51.19
-51.826
-52.52
-53.269
-54.067
-54.91
-55.791
-56.703
-57.638
-58.587
-59.544
-60.498
-61.44
-62.361
-63.25
-64.099
-64.9
-65.643
-66.319
-66.92
-67.437
-67.863
-68.191
-68.411
-68.515
-68.495
-68.344
-68.057
-67.629
-67.054
-66.33
-65.452
-64.42
-63.236
-61.901
-60.411
-58.767
-56.965
-55.012
-52.92
-50.702
-48.366
-45.924
-43.389
-40.775
-38.106
-35.392
-32.637
-29.844
-27.017
-24.167
-21.317
-18.487
-15.698
-12.961
-10.278
-7.654
-5.105
-2.636
-0.246
2.067
4.318
6.494
8.557
10.474
12.211
13.75
15.091
16.227
17.154
17.864
18.339
18.57
18.556
18.28
17.72
16.851
15.637
14.088
12.251
10.173
7.91
5.508
2.994
0.405
-2.219
-4.843
-7.428
-9.937
-12.334
-14.567
-16.581
-18.32
-19.723
-20.784
-21.538
-22.033
-22.339
-22.51
-22.589
-22.647
-22.756
-22.986
-23.409
-24.067
-25.025
-26.411
-28.3
-30.695
-33.514
-36.481
-39.257
-41.564
-43.021
-43.172
-41.751
-38.672
-34.179
-29.034
-24.103
-20.152
-18.02
-18.516
-22.046
-28.449
-36.779
-45.18
-51.27
-52.448
-46.022
-29.012
0.293
41.128
91.859
149.892
214.051
286.938
369.155
456.187
537.462
595.709
616.397
594.246
533.292
444.851
339.832
227.097
114.323
10.9
-69.56
-118.521
-134.81
-125.709
-106.74
-88.293
-74.361
-64.567
-54.08
-41.863
-29.894
-20.2
-15.515
-16.323
-21.358
-29.15
-37.535
-44.81
-50.359
-53.883
-55.45
-55.36
-53.672
-50.788
-47.608
-44.848
-42.917
-41.992
-41.946
-42.656
-44.19
-46.444
-49.107
-51.915
-54.629
-57.1
-59.317
-61.231
-62.747
-63.819
-64.44
-64.619
-64.396
-63.797
-62.829
-61.517
-59.891
-57.99
-55.86
-53.544
-51.088
-48.539
-45.946
-43.358
-40.812
-38.335
-35.951
-33.675
-31.515
-29.476
-27.556
-25.75
-24.056
-22.473
-20.994
-19.618
-18.337
-17.143
-16.028
-14.986
-14.007
-13.084
-12.211
-11.38
-10.584
-9.82
-9.079
-8.359
-7.65
-6.947
-6.239
-5.52
-4.78
-4.012
-3.207
-2.356
-1.452
-0.488
0.541
1.642
2.82
4.08
5.424
6.857
8.381
9.996
11.705
13.506
15.399
17.381
19.45
21.601
23.83
26.133
28.502
30.933
33.418
35.95
38.521
41.123
43.747
46.385
49.028
51.665
54.287
56.885
59.448
61.967
64.431
66.831
69.156
71.397
73.544
75.589
77.52
79.331
81.011
82.553
83.949
85.191
86.275
87.192
87.938
88.509
88.9
89.108
89.13
88.964
88.608
88.062
87.325
86.398
85.282
83.979
82.492
80.825
78.981
76.964
74.781
72.438
69.94
67.297
64.515
61.604
58.574
55.435
52.197
48.873
45.474
42.011
38.498
34.947
31.371
27.783
24.194
20.618
17.068
13.556
10.094
6.693
3.366
0.122
-3.026
-6.069
-8.998
-11.804
-14.479
-17.014
-19.403
-21.64
-23.72
-25.638
-27.39
-28.974
-30.387
-31.63
-32.703
-33.607
-34.344
-34.917
-35.332
-35.592
-35.703
-35.673
-35.508
-35.216
-34.805
-34.284
-33.662
-32.949
-32.154
-31.287
-30.359
-29.379
-28.357
-27.303
-26.228
-25.14
-24.05
-22.966
-21.898
-20.853
-19.841
-18.867
-17.941
-17.066
-16.251
-15.498
-14.814
-14.199
-13.659
-13.193
-12.804
-12.491
-12.254
-12.091
-12.002
-11.983
-12.031
-12.144
-12.317
-12.546
-12.827
-13.154
-13.522
-13.927
-14.362
-14.822
-15.301
-15.794
-16.295
-16.798
-17.298
-17.79
-18.269
-18.729
-19.165
-19.575
-19.953
-20.296
-20.602
-20.868
-21.092
-21.273
-21.41
-21.503
-21.552
-21.557
-21.521
-21.443
-21.327
-21.174
-20.988
-20.77
-20.524
-20.253
-19.961
-19.651
-19.326
-18.99
-18.647
-18.299
-17.952
-17.608
-17.272
-16.946
-16.635
-16.341
-16.068
-15.819
-15.596
-15.403
-15.24
-15.11
-15.014
-14.953
-14.928
-14.94
-14.988
-15.072
-15.191
-15.345
-15.531
-15.749
-15.997
-16.274
-16.577
-16.904
-17.256
-17.629
-18.022
-18.434
-18.865
-19.311
-19.772
-20.246
-20.732
-21.228
-21.733
-22.245
-22.763
-23.285
-23.81
-24.338
-24.867
-25.396
-25.926
-26.455
-26.983
-27.511
-28.039
-28.567
-29.096
-29.627
-30.16
-30.698
-31.239
-31.786
-32.338
-32.895
-33.457
-34.021
-34.586
-35.149
-35.707
-36.258
-36.8
-37.329
-37.845
-38.344
-38.826
-39.288
-39.73
-40.147
-40.536
-40.893
-41.213
-41.491
-41.722
-41.899
-42.016
-42.066
-42.047
-41.952
-41.777
-41.515
-41.153
-40.686
-40.111
-39.428
-38.638
-37.748
-36.764
-35.699
-34.574
-33.409
-32.222
-31.029
-29.833
-28.637
-27.444
-26.26
-25.092
-23.94
-22.79
-21.624
-20.427
-19.185
-17.878
-16.483
-14.952
-13.246
-11.339
-9.213
-6.877
-4.352
-1.654
1.189
4.141
7.151
10.144
13.036
15.76
18.253
20.456
22.3
23.687
24.53
24.765
24.348
23.265
21.515
19.106
16.06
12.432
8.304
3.781
-1.013
-5.987
-11.057
-16.14
-21.144
-25.952
-30.447
-34.54
-38.168
-41.283
-43.841
-45.815
-47.208
-48.066
-48.48
-48.548
-48.35
-47.954
-47.431
-46.857
-46.331
-45.963
-45.819
-45.977
-46.558
-47.605
-49.1
-50.924
-52.738
-54.157
-54.928
-54.729
-53.154
-50.047
-45.48
-39.782
-33.887
-28.777
-24.917
-22.827
-23.342
-26.616
-32.101
-39.008
-44.314
-44.667
-39.225
-26.045
-4.724
22.954
58.624
102.625
155.19
219.285
294.36
377.428
461.231
533.445
581.572
594.547
569.293
508.246
416.932
308.199
193.371
85.969
2.885
-49.871
-71.807
-69.824
-60.271
-52.108
-48.343
-48.456
-46.071
-39.285
-30.602
-22.343
-17.666
-17.599
-20.791
-25.938
-31.795
-37.172
-41.224
-43.524
-43.99
-42.886
-40.763
-38.119
-35.327
-32.812
-30.964
-29.981
-29.927
-30.727
-32.191
-34.163
-36.525
-39.142
-41.889
-44.661
-47.357
-49.883
-52.16
-54.12
-55.718
-56.925
-57.731
-58.131
-58.129
-57.755
-57.045
-56.039
-54.775
-53.286
-51.602
-49.762
-47.814
-45.806
-43.789
-41.8
-39.864
-38.003
-36.229
-34.552
-32.975
-31.494
-30.096
-28.774
-27.524
-26.342
-25.225
-24.168
-23.162
-22.197
-21.265
-20.358
-19.47
-18.593
-17.719
-16.843
-15.96
-15.065
-14.156
-13.227
-12.271
-11.282
-10.253
-9.175
-8.042
-6.846
-5.58
-4.236
-2.809
-1.293
0.316
2.023
3.831
5.744
7.764
9.892
12.129
14.475
16.928
19.487
22.148
24.907
27.759
30.699
33.719
36.813
39.971
43.186
46.447
49.746
53.071
56.411
59.755
63.089
66.403
69.682
72.913
76.083
79.178
82.184
85.087
87.873
90.53
93.043
95.4
97.589
99.598
101.414
103.029
104.432
105.615
106.571
107.292
107.773
108.011
108.002
107.744
107.237
106.48
105.477
104.229
102.74
101.016
99.062
96.887
94.498
91.906
89.12
86.152
83.015
79.721
76.285
72.721
69.045
65.272
61.419
57.503
53.541
49.55
45.547
41.549
37.572
33.634
29.749
25.932
22.198
18.56
15.03
11.621
8.343
5.206
2.219
-0.612
-3.279
-5.777
-8.103
-10.252
-12.224
-14.016
-15.63
-17.065
-18.324
-19.41
-20.326
-21.077
-21.668
-22.107
-22.4
-22.557
-22.584
-22.492
-22.29
-21.988
-21.596
-21.124
-20.582
-19.981
-19.329
-18.638
-17.915
-17.171
-16.414
-15.652
-14.892
-14.141
-13.405
-12.689
-11.999
-11.339
-10.713
-10.124
-9.574
-9.067
-8.603
-8.186
-7.815
-7.49
-7.212
-6.979
-6.791
-6.645
-6.54
-6.472
-6.439
-6.439
-6.467
-6.521
-6.596
-6.69
-6.798
-6.918
-7.044
-7.175
-7.307
-7.438
-7.565
-7.686
-7.799
-7.905
-8.001
-8.087
-8.163
-8.228
-8.283
-8.327
-8.361
-8.385
-8.4
-8.406
-8.405
-8.398
-8.386
-8.371
-8.354
-8.338
-8.324
-8.313
-8.309
-8.314
-8.329
-8.356
-8.4
-8.461
-8.542
-8.645
-8.771
-8.924
-9.102
-9.309
-9.543
-9.806
-10.098
-10.418
-10.767
-11.144
-11.548
-11.978
-12.435
-12.917
-13.424
-13.954
-14.507
-15.081
-15.675
-16.287
-16.918
-17.564
-18.225
-18.899
-19.585
-20.281
-20.985
-21.695
-22.408
-23.123
-23.838
-24.549
-25.256
-25.955
-26.644
-27.323
-27.989
-28.641
-29.277
-29.897
-30.499
-31.082
-31.645
-32.186
-32.705
-33.199
-33.668
-34.111
-34.526
-34.913
-35.269
-35.596
-35.89
-36.152
-36.381
-36.575
-36.733
-36.855
-36.94
-36.987
-36.996
-36.969
-36.904
-36.803
-36.667
-36.497
-36.293
-36.058
-35.792
-35.496
-35.172
-34.822
-34.446
-34.047
-33.628
-33.19
-32.737
-32.272
-31.798
-31.32
-30.84
-30.363
-29.89
-29.427
-28.975
-28.537
-28.117
-27.718
-27.342
-26.994
-26.678
-26.401
-26.168
-25.982
-25.848
-25.768
-25.744
-25.777
-25.865
-26.008
-26.203
-26.45
-26.751
-27.112
-27.535
-28.018
-28.556
-29.139
-29.752
-30.38
-31.01
-31.621
-32.199
-32.736
-33.227
-33.679
-34.105
-34.505
-34.874
-35.198
-35.456
-35.642
-35.755
-35.799
-35.795
-35.761
-35.721
-35.719
-35.79
-35.957
-36.227
-36.572
-36.95
-37.332
-37.701
-38.057
-38.408
-38.745
-39.051
-39.3
-39.457
-39.477
-39.302
-38.836
-37.985
-36.672
-34.86
-32.559
-29.819
-26.679
-23.169
-19.319
-15.148
-10.699
-6.031
-1.2
3.726
8.663
13.496
18.066
22.191
25.716
28.529
30.568
31.82
32.272
31.916
30.768
28.848
26.196
22.869
18.913
14.381
9.356
3.951
-1.678
-7.342
-12.878
-18.158
-23.079
-27.587
-31.635
-35.198
-38.305
-40.994
-43.317
-45.333
-47.077
-48.58
-49.921
-51.183
-52.479
-53.956
-55.693
-57.763
-60.273
-63.246
-66.645
-70.359
-74.066
-77.381
-80.029
-81.703
-82.042
-80.825
-77.91
-73.376
-67.765
-61.815
-56.078
-50.926
-46.962
-44.735
-44.215
-45.104
-45.448
-41.406
-31.209
-14.442
8.298
32.853
59.306
92.42
136.198
198.1
279.575
372.156
466.553
547.446
601.778
626.108
616.686
576.572
510.698
418.532
307.887
188.651
74.5
-12.777
-63.075
-76.221
-61.587
-39.714
-23.161
-16.151
-17.137
-18.11
-16.018
-12.206
-8.576
-8.375
-12.169
-18.175
-25.011
-31.091
-35.222
-37.215
-37.05
-34.934
-31.466
-27.253
-22.843
-18.79
-15.558
-13.367
-12.288
-12.274
-13.187
-14.906
-17.265
-20.087
-23.202
-26.456
-29.775
-33.115
-36.357
-39.346
-42.11
-44.735
-47.077
-49.122
-50.894
-52.046
-53.539
-56.321
-59.109
-61.537
-61.214
-55.272
-46.958
-38.458
-33.007
-35.034
-40.704
-46.763
-50.974
-49.627
-45.386
-40.946
-36.902
-34.887
-33.936
-32.812
-31.74
-30.56
-29.348
-28.347
-27.385
-26.324
-25.2
-24.015
-22.751
-21.406
-19.989
-18.503
-16.971
-15.421
-13.845
-12.23
-10.58
-8.894
-7.17
-5.409
-3.607
-1.761
0.128
2.06
4.034
6.047
8.101
10.193
12.324
14.491
16.695
18.934
21.207
23.513
25.851
28.219
30.615
33.037
35.482
37.95
40.436
42.938
45.454
47.981
50.514
53.052
55.59
58.124
60.651
63.164
65.661
68.135
70.582
72.996
75.372
77.705
79.988
82.216
84.382
86.481
88.506
90.45
92.305
94.066
95.724
97.272
98.703
100.011
101.188
102.228
103.125
103.872
104.465
104.898
105.166
105.266
105.192
104.944
104.517
103.911
103.125
102.158
101.011
99.686
98.185
96.509
94.664
92.651
90.477
88.147
85.667
83.045
80.287
77.403
74.401
71.292
68.085
64.791
61.422
57.987
54.499
50.969
47.408
43.829
40.244
36.662
33.097
29.559
26.058
22.605
19.21
15.882
12.63
9.463
6.387
3.412
0.543
-2.214
-4.851
-7.365
-9.75
-12.003
-14.12
-16.099
-17.937
-19.633
-21.185
-22.595
-23.861
-24.985
-25.968
-26.812
-27.519
-28.092
-28.533
-28.847
-29.038
-29.108
-29.063
-28.906
-28.643
-28.277
-27.815
-27.26
-26.618
-25.894
-25.093
-24.22
-23.28
-22.28
-21.224
-20.119
-18.969
-17.781
-16.56
-15.312
-14.043
-12.758
-11.465
-10.167
-8.872
-7.585
-6.312
-5.058
-3.828
-2.628
-1.464
-0.339
0.741
1.771
2.747
3.664
4.518
5.304
6.02
6.661
7.224
7.707
8.106
8.419
8.644
8.779
8.823
8.775
8.634
8.4
8.074
7.657
7.149
6.553
5.871
5.105
4.26
3.339
2.345
1.283
0.157
-1.026
-2.263
-3.548
-4.874
-6.236
-7.627
-9.042
-10.473
-11.916
-13.363
-14.809
-16.247
-17.672
-19.078
-20.459
-21.809
-23.125
-24.401
-25.632
-26.814
-27.945
-29.02
-30.037
-30.994
-31.89
-32.722
-33.492
-34.199
-34.842
-35.425
-35.947
-36.411
-36.82
-37.176
-37.483
-37.744
-37.965
-38.148
-38.3
-38.424
-38.525
-38.609
-38.681
-38.746
-38.809
-38.875
-38.951
-39.04
-39.146
-39.276
-39.433
-39.62
-39.841
-40.101
-40.4
-40.741
-41.128
-41.56
-42.04
-42.569
-43.146
-43.772
-44.445
-45.166
-45.933
-46.743
-47.594
-48.485
-49.411
-50.37
-51.358
-52.372
-53.405
-54.454
-55.514
-56.577
-57.639
-58.692
-59.732
-60.752
-61.747
-62.711
-63.641
-64.532
-65.381
-66.183
-66.936
-67.633
-68.269
-68.839
-69.338
-69.76
-70.099
-70.349
-70.505
-70.565
-70.525
-70.383
-70.133
-69.767
-69.281
-68.676
-67.954
-67.119
-66.181
-65.146
-64.028
-62.85
-61.632
-60.393
-59.148
-57.901
-56.654
-55.413
-54.185
-52.977
-51.791
-50.613
-49.426
-48.216
-46.967
-45.663
-44.279
-42.768
-41.091
-39.224
-37.151
-34.88
-32.43
-29.816
-27.061
-24.198
-21.27
-18.346
-15.502
-12.795
-10.284
-8.028
-6.098
-4.59
-3.586
-3.143
-3.303
-4.076
-5.456
-7.428
-9.957
-12.984
-16.431
-20.202
-24.188
-28.303
-32.467
-36.588
-40.572
-44.302
-47.678
-50.625
-53.081
-55.012
-56.417
-57.317
-57.769
-57.848
-57.627
-57.189
-56.643
-56.096
-55.637
-55.347
-55.289
-55.554
-56.297
-57.619
-59.503
-61.788
-64.178
-66.377
-68.138
-69.134
-68.888
-67.047
-63.596
-58.952
-53.915
-49.139
-45.224
-43.023
-43.315
-46.707
-52.217
-56.897
-58.947
-57.435
-52.748
-47.417
-38.169
-18.75
14.57
67.355
137.035
216.623
305
395.188
480.043
550.924
590.559
591.193
553.537
485.623
403.512
314.244
220.897
125.793
32.372
-45.131
-95.437
-114.625
-106.565
-86.792
-67.126
-52.961
-45.53
-39.759
-33.375
-27.684
-24.105
-25.118
-31.411
-41.179
-52.279
-62.79
-71.346
-77.438
-81.01
-82.046
-80.588
-77.196
-72.824
-68.286
-64.231
-60.992
-58.566
-56.991
-56.392
-56.694
-57.649
-59.034
-60.62
-62.277
-64.014
-65.793
-67.512
-69.097
-70.476
-71.585
-72.405
-72.92
-73.093
-72.917
-72.395
-71.537
-70.381
-68.966
-67.329
-65.505
-63.528
-61.432
-59.257
-57.046
-54.844
-52.695
-50.628
-48.663
-46.812
-45.082
-43.479
-42
-40.639
-39.383
-38.223
-37.151
-36.164
-35.255
-34.417
-33.64
-32.915
-32.229
-31.575
-30.943
-30.325
-29.711
-29.094
-28.467
-27.82
-27.149
-26.445
-25.697
-24.897
-24.033
-23.096
-22.074
-20.959
-19.741
-18.412
-16.963
-15.388
-13.681
-11.838
-9.855
-7.727
-5.453
-3.03
-0.459
2.261
5.129
8.141
11.296
14.587
18.011
21.56
25.228
29.006
32.886
36.858
40.911
45.033
49.212
53.435
57.687
61.954
66.22
70.468
74.684
78.849
82.948
86.962
90.876
94.673
98.337
101.85
105.199
108.367
111.34
114.103
116.643
118.949
121.007
122.807
124.34
125.598
126.572
127.257
127.649
127.742
127.535
127.026
126.217
125.108
123.703
122.006
120.024
117.764
115.235
112.447
109.412
106.142
102.65
98.953
95.065
91.002
86.782
82.422
77.942
73.359
68.694
63.965
59.191
54.393
49.589
44.798
40.038
35.327
30.682
26.12
21.656
17.306
13.083
9
5.07
1.304
-2.289
-5.699
-8.92
-11.945
-14.769
-17.389
-19.802
-22.006
-24.003
-25.792
-27.376
-28.758
-29.943
-30.936
-31.743
-32.372
-32.829
-33.124
-33.265
-33.263
-33.126
-32.865
-32.489
-32.009
-31.434
-30.775
-30.041
-29.243
-28.389
-27.489
-26.552
-25.587
-24.602
-23.605
-22.602
-21.602
-20.611
-19.634
-18.676
-17.743
-16.838
-15.965
-15.127
-14.327
-13.566
-12.845
-12.166
-11.529
-10.933
-10.378
-9.862
-9.385
-8.945
-8.54
-8.169
-7.83
-7.522
-7.242
-6.989
-6.761
-6.557
-6.374
-6.211
-6.065
-5.936
-5.821
-5.719
-5.628
-5.547
-5.475
-5.411
-5.353
-5.3
-5.252
-5.209
-5.169
-5.134
-5.102
-5.075
-5.053
-5.037
-5.029
-5.029
-5.04
-5.063
-5.099
-5.149
-5.215
-5.3
-5.403
-5.527
-5.673
-5.843
-6.038
-6.261
-6.513
-6.796
-7.111
-7.46
-7.844
-8.266
-8.725
-9.225
-9.766
-10.349
-10.976
-11.648
-12.365
-13.128
-13.936
-14.79
-15.688
-16.629
-17.612
-18.634
-19.694
-20.79
-21.919
-23.079
-24.268
-25.481
-26.716
-27.969
-29.236
-30.512
-31.793
-33.074
-34.35
-35.616
-36.867
-38.099
-39.305
-40.483
-41.625
-42.728
-43.785
-44.792
-45.743
-46.635
-47.462
-48.22
-48.907
-49.519
-50.055
-50.513
-50.893
-51.193
-51.414
-51.556
-51.617
-51.598
-51.498
-51.319
-51.062
-50.728
-50.321
-49.846
-49.309
-48.717
-48.078
-47.396
-46.678
-45.93
-45.156
-44.361
-43.547
-42.719
-41.881
-41.04
-40.21
-39.399
-38.612
-37.85
-37.111
-36.386
-35.669
-34.952
-34.222
-33.47
-32.694
-31.896
-31.09
-30.292
-29.508
-28.74
-27.978
-27.211
-26.441
-25.666
-24.894
-24.146
-23.439
-22.799
-22.27
-21.882
-21.652
-21.587
-21.66
-21.832
-22.082
-22.388
-22.746
-23.154
-23.594
-24.048
-24.498
-24.9
-25.211
-25.371
-25.284
-24.869
-24.072
-22.845
-21.194
-19.153
-16.739
-13.983
-10.909
-7.537
-3.912
-0.082
3.913
8.005
12.112
16.13
19.901
23.286
26.172
28.447
30.057
30.981
31.193
30.698
29.52
27.683
25.235
22.23
18.706
14.729
10.387
5.792
1.105
-3.524
-7.978
-12.133
-15.903
-19.236
-22.09
-24.479
-26.46
-28.09
-29.436
-30.556
-31.491
-32.319
-33.135
-34.049
-35.197
-36.667
-38.529
-40.903
-43.835
-47.277
-51.092
-54.943
-58.423
-61.272
-63.244
-63.98
-63.266
-61.047
-57.477
-53.181
-48.886
-44.906
-41.321
-38.529
-36.925
-36.311
-36.131
-34.243
-27.06
-13.287
6.971
32.796
60.88
91.445
127.459
171.264
227.308
295.913
373.641
455.932
532.239
592.714
627.937
627.402
589.737
516.12
409.989
285.541
155.194
34.352
-55.411
-105.652
-113.434
-84.104
-39.123
4.802
34.006
39.701
27.966
6.874
-14.427
-27.388
-31.495
-29.427
-25.31
-22.898
-22.711
-23.27
-22.484
-19.597
-15.285
-10.728
-7.392
-5.743
-5.352
-6.124
-8.004
-10.758
-14.247
-18.067
-21.561
-24.593
-27.463
-30.306
-33.216
-36.222
-39.164
-42.027
-44.959
-47.907
-50.667
-53.094
-55.056
-56.505
-57.527
-58.156
-58.382
-58.233
-57.756
-56.998
-56.028
-54.894
-53.617
-52.231
-50.773
-49.273
-47.762
-46.259
-44.773
-43.305
-41.854
-40.41
-38.966
-37.517
-36.06
-34.594
-33.12
-31.634
-30.136
-28.625
-27.102
-25.564
-24.01
-22.44
-20.852
-19.25
-17.637
-16.017
-14.395
-12.772
-11.152
-9.534
-7.919
-6.309
-4.701
-3.096
-1.491
0.114
1.72
3.326
4.934
6.542
8.153
9.765
11.38
12.997
14.617
16.241
17.869
19.503
21.141
22.786
24.437
26.095
27.76
29.431
31.11
32.796
34.488
36.187
37.892
39.603
41.317
43.035
44.753
46.469
48.181
49.885
51.576
53.252
54.906
56.535
58.134
59.696
61.217
62.692
64.114
65.477
66.775
68.002
69.151
70.216
71.19
72.067
72.841
73.505
74.054
74.482
74.785
74.956
74.992
74.889
74.642
74.249
73.707
73.015
72.171
71.176
70.031
68.737
67.297
65.714
63.991
62.135
60.149
58.041
55.817
53.484
51.049
48.523
45.912
43.228
40.48
37.678
34.832
31.952
29.051
26.137
23.222
20.316
17.429
14.572
11.754
8.986
6.277
3.634
1.067
-1.417
-3.811
-6.109
-8.306
-10.396
-12.375
-14.24
-15.988
-17.618
-19.126
-20.513
-21.779
-22.924
-23.949
-24.857
-25.649
-26.329
-26.9
-27.367
-27.733
-28.004
-28.185
-28.28
-28.297
-28.24
-28.116
-27.93
-27.69
-27.4
-27.068
-26.699
-26.298
-25.872
-25.426
-24.965
-24.493
-24.016
-23.536
-23.06
-22.589
-22.128
-21.68
-21.247
-20.833
-20.439
-20.066
-19.717
-19.392
-19.092
-18.817
-18.567
-18.342
-18.142
-17.965
-17.81
-17.676
-17.561
-17.464
-17.383
-17.315
-17.257
-17.209
-17.167
-17.13
-17.094
-17.058
-17.02
-16.976
-16.926
-16.866
-16.796
-16.713
-16.615
-16.5
-16.367
-16.215
-16.043
-15.849
-15.632
-15.393
-15.131
-14.845
-14.536
-14.205
-13.852
-13.477
-13.084
-12.672
-12.244
-11.801
-11.348
-10.885
-10.416
-9.944
-9.472
-9.004
-8.543
-8.094
-7.659
-7.243
-6.85
-6.484
-6.149
-5.849
-5.588
-5.371
-5.201
-5.081
-5.016
-5.008
-5.061
-5.178
-5.361
-5.613
-5.936
-6.331
-6.799
-7.341
-7.958
-8.649
-9.414
-10.252
-11.16
-12.138
-13.182
-14.288
-15.455
-16.676
-17.948
-19.266
-20.623
-22.015
-23.435
-24.875
-26.331
-27.793
-29.256
-30.712
-32.153
-33.572
-34.962
-36.315
-37.625
-38.883
-40.084
-41.221
-42.288
-43.279
-44.188
-45.011
-45.743
-46.38
-46.919
-47.356
-47.69
-47.918
-48.04
-48.054
-47.962
-47.764
-47.461
-47.056
-46.551
-45.95
-45.256
-44.475
-43.612
-42.67
-41.656
-40.576
-39.436
-38.242
-36.999
-35.716
-34.396
-33.047
-31.675
-30.286
-28.886
-27.48
-26.073
-24.67
-23.277
-21.898
-20.537
-19.198
-17.884
-16.599
-15.347
-14.129
-12.948
-11.805
-10.703
-9.642
-8.623
-7.648
-6.715
-5.824
-4.977
-4.172
-3.41
-2.69
-2.014
-1.381
-0.794
-0.254
0.236
0.673
1.055
1.378
1.639
1.836
1.967
2.03
2.024
1.946
1.793
1.563
1.253
0.859
0.38
-0.187
-0.845
-1.593
-2.43
-3.354
-4.362
-5.457
-6.647
-7.936
-9.325
-10.815
-12.404
-14.082
-15.839
-17.654
-19.493
-21.323
-23.113
-24.833
-26.463
-27.979
-29.353
-30.555
-31.547
-32.298
-32.789
-33.005
-32.931
-32.576
-31.97
-31.166
-30.26
-29.341
-28.477
-27.743
-27.207
-26.941
-27.035
-27.559
-28.543
-30.017
-32.039
-34.613
-37.686
-41.113
-44.558
-47.678
-50.225
-51.915
-52.369
-51.37
-48.855
-44.954
-40.33
-35.575
-30.814
-26.417
-23.027
-20.899
-20.013
-19.052
-14.802
-4.711
11.869
32.81
54.566
75.227
96.02
124.154
167.274
229.448
311.743
404.982
494.635
567.477
608.953
610.817
574.373
502.73
403.331
289.752
172.733
65.906
-14.504
-63.738
-82.234
-77.393
-65.666
-55.792
-50.55
-49.432
-46.338
-39.504
-31.292
-23.831
-19.98
-20.478
-23.867
-28.799
-33.959
-38.238
-40.973
-41.885
-41.06
-38.876
-35.909
-32.684
-29.601
-27.065
-25.414
-24.794
-25.218
-26.582
-28.692
-31.389
-34.546
-38.025
-41.695
-45.44
-49.142
-52.7
-56.024
-59.043
-61.709
-63.99
-65.871
-67.348
-68.434
-69.154
-69.543
-69.637
-69.467
-69.066
-68.463
-67.698
-66.817
-65.868
-64.895
-63.932
-62.999
-62.111
-61.277
-60.497
-59.769
-59.082
-58.422
-57.778
-57.143
-56.512
-55.879
-55.236
-54.575
-53.885
-53.157
-52.384
-51.558
-50.673
-49.724
-48.705
-47.613
-46.446
-45.203
-43.88
-42.473
-40.977
-39.388
-37.702
-35.914
-34.022
-32.022
-29.913
-27.693
-25.363
-22.924
-20.378
-17.726
-14.971
-12.116
-9.166
-6.124
-2.995
0.214
3.498
6.85
10.262
13.727
17.234
20.776
24.343
27.925
31.511
35.092
38.656
42.192
45.69
49.136
52.52
55.831
59.055
62.182
65.202
68.103
70.877
73.513
76.003
78.34
80.516
82.525
84.36
86.016
87.488
88.771
89.863
90.76
91.461
91.963
92.267
92.373
92.282
91.996
91.516
90.846
89.991
88.954
87.741
86.358
84.813
83.113
81.267
79.284
77.173
74.945
72.609
70.176
67.656
65.059
62.398
59.68
56.919
54.124
51.305
48.474
45.64
42.814
40.006
37.225
34.48
31.78
29.132
26.545
24.025
21.58
19.215
16.936
14.749
12.656
10.663
8.77
6.981
5.295
3.712
2.233
0.854
-0.425
-1.606
-2.694
-3.692
-4.602
-5.43
-6.18
-6.857
-7.467
-8.015
-8.507
-8.949
-9.349
-9.711
-10.042
-10.349
-10.637
-10.911
-11.179
-11.445
-11.715
-11.994
-12.288
-12.599
-12.934
-13.295
-13.686
-14.107
-14.562
-15.051
-15.575
-16.133
-16.725
-17.351
-18.009
-18.698
-19.416
-20.16
-20.928
-21.717
-22.523
-23.343
-24.173
-25.009
-25.846
-26.68
-27.508
-28.326
-29.128
-29.913
-30.675
-31.411
-32.117
-32.789
-33.425
-34.02
-34.573
-35.081
-35.542
-35.954
-36.317
-36.631
-36.895
-37.11
-37.276
-37.395
-37.467
-37.494
-37.478
-37.421
-37.326
-37.194
-37.03
-36.837
-36.618
-36.377
-36.118
-35.843
-35.556
-35.261
-34.961
-34.659
-34.359
-34.063
-33.776
-33.499
-33.235
-32.988
-32.76
-32.552
-32.367
-32.204
-32.066
-31.952
-31.863
-31.798
-31.758
-31.741
-31.747
-31.775
-31.823
-31.89
-31.974
-32.072
-32.181
-32.3
-32.424
-32.552
-32.68
-32.806
-32.927
-33.04
-33.142
-33.233
-33.308
-33.366
-33.405
-33.424
-33.421
-33.394
-33.344
-33.27
-33.171
-33.047
-32.9
-32.729
-32.537
-32.323
-32.089
-31.838
-31.571
-31.292
-31.002
-30.705
-30.405
-30.104
-29.807
-29.517
-29.239
-28.976
-28.733
-28.512
-28.319
-28.156
-28.026
-27.933
-27.878
-27.863
-27.89
-27.957
-28.066
-28.214
-28.401
-28.625
-28.885
-29.178
-29.503
-29.859
-30.243
-30.653
-31.085
-31.533
-31.99
-32.451
-32.908
-33.352
-33.775
-34.166
-34.517
-34.822
-35.075
-35.267
-35.39
-35.43
-35.378
-35.23
-34.983
-34.637
-34.193
-33.654
-33.029
-32.338
-31.6
-30.831
-30.041
-29.229
-28.396
-27.547
-26.683
-25.813
-24.933
-24.026
-23.081
-22.089
-21.04
-19.925
-18.718
-17.375
-15.861
-14.153
-12.245
-10.156
-7.905
-5.51
-3.001
-0.414
2.198
4.754
7.188
9.445
11.465
13.2
14.578
15.506
15.913
15.749
14.991
13.654
11.757
9.32
6.39
3.025
-0.689
-4.635
-8.71
-12.821
-16.88
-20.809
-24.524
-27.927
-30.947
-33.541
-35.695
-37.43
-38.779
-39.789
-40.527
-41.082
-41.57
-42.108
-42.83
-43.897
-45.405
-47.391
-49.817
-52.513
-55.292
-58.009
-60.426
-62.23
-63.219
-63.253
-62.434
-61.277
-60.275
-59.819
-60.346
-62.174
-65.473
-70.359
-76.429
-82.456
-86.945
-88.279
-84.817
-75.035
-57.271
-29.838
8.391
56.239
110.607
168.66
228.259
290.338
357.231
426.276
489.325
533.909
548.057
527.816
478.773
410.828
330.722
242.833
149.392
55.668
-23.684
-76.957
-99.457
-95.34
-80.063
-65.53
-56.525
-52.302
-46.904
-38.162
-27.584
-17.468
-10.974
-8.82
-10.146
-14.594
-21.008
-28.084
-35.078
-41.042
-45.523
-48.764
-50.786
-51.372
-50.669
-49.012
-46.832
-44.843
-43.42
-42.553
-42.329
-42.842
-44.091
-46.049
-48.544
-51.209
-53.809
-56.232
-58.361
-60.158
-61.586
-62.586
-63.165
-63.375
-63.25
-62.825
-62.123
-61.143
-59.898
-58.415
-56.721
-54.859
-52.873
-50.802
-48.691
-46.57
-44.464
-42.394
-40.371
-38.402
-36.49
-34.632
-32.823
-31.063
-29.352
-27.688
-26.073
-24.499
-22.961
-21.454
-19.973
-18.515
-17.078
-15.657
-14.25
-12.855
-11.471
-10.097
-8.731
-7.371
-6.01
-4.645
-3.272
-1.887
-0.486
0.934
2.375
3.84
5.328
6.841
8.381
9.949
11.55
13.185
14.858
16.571
18.327
20.126
21.972
23.861
25.79
27.758
29.766
31.813
33.905
36.043
38.221
40.437
42.682
44.944
47.206
49.445
51.631
53.749
55.784
57.73
59.593
61.374
63.077
64.707
66.262
67.741
69.149
70.482
71.743
72.948
74.118
75.292
76.518
77.821
79.211
80.688
82.224
83.791
85.35
86.847
88.24
89.496
90.581
91.476
92.164
92.605
92.76
92.571
91.965
90.9
89.35
87.304
84.784
81.825
78.477
74.821
70.927
66.847
62.634
58.319
53.933
49.52
45.128
40.811
36.64
32.668
28.935
25.477
22.303
19.408
16.777
14.363
12.13
10.054
8.118
6.316
4.649
3.108
1.686
0.381
-0.827
-1.95
-2.997
-3.984
-4.913
-5.779
-6.573
-7.275
-7.865
-8.335
-8.679
-8.9
-9.003
-8.994
-8.882
-8.679
-8.395
-8.039
-7.619
-7.139
-6.606
-6.03
-5.423
-4.794
-4.158
-3.524
-2.901
-2.297
-1.719
-1.172
-0.658
-0.18
0.261
0.663
1.024
1.341
1.614
1.841
2.02
2.152
2.237
2.276
2.27
2.223
2.137
2.016
1.864
1.684
1.48
1.256
1.017
0.767
0.51
0.25
-0.009
-0.264
-0.51
-0.744
-0.964
-1.167
-1.351
-1.513
-1.653
-1.769
-1.862
-1.93
-1.973
-1.993
-1.989
-1.961
-1.913
-1.843
-1.755
-1.651
-1.533
-1.404
-1.267
-1.125
-0.983
-0.844
-0.712
-0.591
-0.484
-0.397
-0.331
-0.292
-0.283
-0.307
-0.366
-0.465
-0.605
-0.787
-1.015
-1.289
-1.61
-1.979
-2.395
-2.86
-3.373
-3.933
-4.54
-5.192
-5.887
-6.625
-7.403
-8.218
-9.069
-9.952
-10.864
-11.802
-12.763
-13.742
-14.736
-15.742
-16.754
-17.769
-18.783
-19.792
-20.791
-21.777
-22.747
-23.697
-24.624
-25.525
-26.398
-27.241
-28.05
-28.826
-29.565
-30.267
-30.93
-31.553
-32.135
-32.676
-33.176
-33.633
-34.048
-34.421
-34.752
-35.041
-35.289
-35.497
-35.665
-35.795
-35.888
-35.947
-35.973
-35.968
-35.935
-35.876
-35.795
-35.693
-35.573
-35.437
-35.287
-35.125
-34.953
-34.773
-34.585
-34.393
-34.196
-33.997
-33.798
-33.599
-33.403
-33.21
-33.022
-32.841
-32.668
-32.504
-32.351
-32.209
-32.081
-31.966
-31.867
-31.783
-31.713
-31.658
-31.615
-31.582
-31.557
-31.535
-31.514
-31.489
-31.459
-31.419
-31.367
-31.301
-31.218
-31.116
-30.995
-30.85
-30.677
-30.472
-30.228
-29.941
-29.606
-29.214
-28.76
-28.236
-27.641
-26.969
-26.218
-25.38
-24.443
-23.401
-22.254
-21.001
-19.646
-18.195
-16.652
-15.034
-13.363
-11.661
-9.951
-8.245
-6.541
-4.845
-3.162
-1.497
0.141
1.753
3.356
4.961
6.574
8.206
9.865
11.578
13.393
15.344
17.455
19.73
22.144
24.678
27.309
30.004
32.723
35.409
37.981
40.375
42.544
44.431
45.985
47.139
47.796
47.883
47.354
46.185
44.39
41.997
39.03
35.542
31.602
27.294
22.728
17.998
13.177
8.348
3.587
-1.021
-5.372
-9.382
-12.996
-16.178
-18.944
-21.337
-23.404
-25.21
-26.811
-28.273
-29.697
-31.176
-32.798
-34.647
-36.755
-39.162
-41.978
-45.252
-48.952
-52.944
-56.856
-60.286
-62.989
-64.675
-64.947
-63.595
-60.589
-56.185
-51.297
-46.823
-43.139
-40.84
-40.771
-43.26
-48.203
-53.868
-56.35
-52.532
-41.231
-24.261
-5.034
15.2
38.023
70.785
121.359
193.116
286.395
391.173
491.324
572.393
619.05
622.859
585.775
511.615
408.175
289.162
165.699
52.512
-32.802
-84.515
-103.104
-97.267
-85
-75.8
-72.263
-72.927
-70.724
-63.626
-54.326
-45.454
-40.207
-39.449
-41.711
-45.624
-49.947
-53.569
-55.687
-55.896
-54.191
-50.883
-46.556
-41.775
-36.95
-32.531
-28.953
-26.424
-25.006
-24.634
-25.122
-26.311
-28.085
-30.295
-32.799
-35.487
-38.25
-40.991
-43.636
-46.088
-48.273
-50.152
-51.692
-52.886
-53.741
-54.267
-54.493
-54.46
-54.202
-53.757
-53.159
-52.439
-51.639
-50.803
-49.972
-49.189
-48.483
-47.869
-47.36
-46.957
-46.658
-46.455
-46.334
-46.276
-46.268
-46.297
-46.354
-46.428
-46.508
-46.58
-46.631
-46.649
-46.624
-46.545
-46.404
-46.193
-45.905
-45.536
-45.079
-44.533
-43.891
-43.149
-42.301
-41.341
-40.265
-39.068
-37.747
-36.299
-34.72
-33.01
-31.168
-29.195
-27.092
-24.862
-22.506
-20.029
-17.436
-14.73
-11.919
-9.009
-6.006
-2.919
0.244
3.475
6.764
10.101
13.476
16.879
20.297
23.719
27.133
30.526
33.886
37.2
40.456
43.64
46.74
49.743
52.637
55.409
58.047
60.538
62.873
65.039
67.026
68.824
70.424
71.819
73
73.96
74.695
75.197
75.463
75.488
75.27
74.807
74.097
73.141
71.94
70.497
68.816
66.902
64.762
62.403
59.835
57.067
54.108
50.97
47.663
44.199
40.592
36.854
32.998
29.04
24.995
20.882
16.718
12.523
8.313
4.107
-0.08
-4.23
-8.327
-12.354
-16.298
-20.146
-23.881
-27.486
-30.939
-34.224
-37.333
-40.261
-43.01
-45.581
-47.97
-50.182
-52.226
-54.105
-55.819
-57.357
-58.697
-59.827
-60.744
-61.453
-61.971
-62.305
-62.448
-62.395
-62.136
-61.662
-60.97
-60.042
-58.847
-57.375
-55.636
-53.664
-51.522
-49.256
-46.894
-44.458
-41.959
-39.417
-36.868
-34.339
-31.856
-29.448
-27.144
-24.993
-23.068
-21.405
-20.015
-18.879
-17.938
-17.155
-16.512
-15.991
-15.579
-15.262
-15.012
-14.818
-14.679
-14.582
-14.511
-14.428
-14.275
-14.021
-13.66
-13.204
-12.693
-12.153
-11.594
-11.03
-10.478
-9.946
-9.448
-8.982
-8.532
-8.095
-7.672
-7.275
-6.928
-6.642
-6.414
-6.237
-6.093
-5.969
-5.858
-5.749
-5.631
-5.496
-5.339
-5.161
-4.973
-4.78
-4.582
-4.381
-4.171
-3.953
-3.729
-3.502
-3.274
-3.051
-2.835
-2.631
-2.446
-2.284
-2.15
-2.046
-1.972
-1.931
-1.926
-1.959
-2.033
-2.151
-2.316
-2.53
-2.797
-3.12
-3.501
-3.94
-4.438
-4.994
-5.607
-6.276
-6.999
-7.774
-8.599
-9.472
-10.39
-11.351
-12.353
-13.391
-14.46
-15.557
-16.674
-17.804
-18.941
-20.074
-21.197
-22.297
-23.367
-24.397
-25.379
-26.301
-27.151
-27.915
-28.581
-29.143
-29.594
-29.931
-30.154
-30.264
-30.269
-30.181
-30.011
-29.768
-29.459
-29.086
-28.653
-28.16
-27.612
-27.015
-26.369
-25.664
-24.887
-24.018
-23.038
-21.927
-20.656
-19.189
-17.496
-15.558
-13.366
-10.926
-8.25
-5.359
-2.28
0.958
4.307
7.707
11.083
14.354
17.441
20.271
22.758
24.809
26.341
27.286
27.597
27.248
26.225
24.53
22.176
19.198
15.661
11.642
7.237
2.552
-2.315
-7.271
-12.215
-17.035
-21.627
-25.902
-29.796
-33.259
-36.254
-38.758
-40.766
-42.312
-43.473
-44.336
-44.999
-45.549
-46.062
-46.624
-47.331
-48.289
-49.588
-51.256
-53.312
-55.808
-58.764
-62.153
-65.855
-69.541
-72.854
-75.571
-77.437
-78.108
-77.341
-74.934
-70.939
-65.976
-60.633
-55.138
-49.922
-45.689
-42.968
-42.172
-42.018
-39.101
-30.758
-16.145
1.863
18.544
32.2
45.412
67.937
110.574
178.802
273.198
382.975
491.171
582.312
640.015
654.725
627.361
561.29
464.463
350.535
228.749
111.126
15.589
-49.32
-78.272
-72.584
-50.906
-28.796
-15.661
-18.321
-28.552
-36.008
-37.571
-30.014
-16.603
-4.661
3.53
6.61
4.28
-0.718
-6.635
-12.979
-18.975
-24.23
-28.784
-32.31
-34.292
-34.777
-34.068
-32.365
-30.202
-28.205
-26.588
-25.566
-25.412
-26.112
-27.597
-29.806
-32.45
-35.182
-37.807
-40.146
-42.079
-43.597
-44.675
-45.288
-45.476
-45.287
-44.757
-43.93
-42.818
-41.425
-39.77
-37.882
-35.807
-33.6
-31.315
-29
-26.694
-24.42
-22.207
-20.075
-18.023
-16.051
-14.15
-12.308
-10.533
-8.845
-7.232
-5.681
-4.221
-2.869
-1.639
-0.556
0.409
1.31
2.123
2.802
3.482
4.32
5.228
6.218
7.327
8.228
9.824
12.996
16.505
19.98
21.143
17.26
11.369
5.496
2.654
6.981
14.831
23.112
29.709
31.123
29.865
28.482
27.542
28.591
30.732
32.81
35.048
37.303
39.656
42.334
45.18
48.063
51.012
54.021
57.049
60.065
63.052
65.997
68.908
71.811
74.689
77.526
80.321
83.07
85.772
88.432
91.043
93.594
96.091
98.55
100.999
103.49
106.051
108.686
111.39
114.139
116.902
119.647
122.321
124.861
127.209
129.313
131.135
132.652
133.825
134.6
134.912
134.675
133.828
132.345
130.207
127.416
123.997
119.981
115.431
110.442
105.09
99.438
93.54
87.429
81.151
74.771
68.356
61.985
55.726
49.624
43.721
38.052
32.632
27.467
22.536
17.792
13.207
8.765
4.46
0.302
-3.709
-7.578
-11.309
-14.906
-18.372
-21.707
-24.91
-27.987
-30.93
-33.727
-36.357
-38.785
-40.99
-42.957
-44.679
-46.154
-47.382
-48.363
-49.101
-49.609
-49.894
-49.964
-49.828
-49.49
-48.959
-48.249
-47.373
-46.349
-45.193
-43.919
-42.543
-41.078
-39.537
-37.933
-36.278
-34.579
-32.848
-31.095
-29.331
-27.568
-25.817
-24.089
-22.394
-20.743
-19.145
-17.609
-16.142
-14.751
-13.442
-12.222
-11.095
-10.065
-9.138
-8.315
-7.599
-6.993
-6.499
-6.115
-5.844
-5.682
-5.631
-5.686
-5.847
-6.11
-6.472
-6.929
-7.477
-8.113
-8.832
-9.629
-10.499
-11.437
-12.437
-13.492
-14.597
-15.746
-16.932
-18.148
-19.39
-20.65
-21.923
-23.203
-24.484
-25.761
-27.028
-28.28
-29.512
-30.72
-31.897
-33.042
-34.149
-35.216
-36.24
-37.219
-38.15
-39.032
-39.863
-40.643
-41.372
-42.048
-42.672
-43.246
-43.77
-44.245
-44.673
-45.057
-45.399
-45.701
-45.967
-46.2
-46.402
-46.577
-46.73
-46.863
-46.981
-47.087
-47.186
-47.282
-47.378
-47.479
-47.587
-47.707
-47.841
-47.992
-48.164
-48.359
-48.577
-48.822
-49.094
-49.394
-49.722
-50.078
-50.462
-50.872
-51.307
-51.765
-52.243
-52.739
-53.25
-53.771
-54.299
-54.829
-55.357
-55.876
-56.382
-56.869
-57.33
-57.76
-58.152
-58.5
-58.798
-59.039
-59.218
-59.328
-59.363
-59.319
-59.189
-58.969
-58.655
-58.243
-57.729
-57.112
-56.39
-55.562
-54.626
-53.585
-52.44
-51.192
-49.845
-48.402
-46.87
-45.253
-43.558
-41.794
-39.97
-38.096
-36.185
-34.248
-32.3
-30.352
-28.42
-26.519
-24.661
-22.862
-21.133
-19.49
-17.946
-16.516
-15.214
-14.056
-13.053
-12.219
-11.565
-11.1
-10.832
-10.766
-10.903
-11.248
-11.804
-12.582
-13.588
-14.823
-16.287
-17.976
-19.881
-21.987
-24.272
-26.704
-29.25
-31.881
-34.569
-37.293
-40.029
-42.748
-45.415
-47.987
-50.422
-52.686
-54.752
-56.593
-58.198
-59.579
-60.768
-61.824
-62.808
-63.757
-64.712
-65.717
-66.819
-68.08
-69.57
-71.327
-73.402
-75.861
-78.709
-81.9
-85.285
-88.565
-91.41
-93.547
-94.719
-94.676
-93.262
-90.467
-86.578
-82.179
-77.948
-74.367
-71.58
-69.813
-69.411
-70.373
-72.108
-72.659
-68.704
-57.445
-38.157
-13.331
13.088
38.267
62.656
93.615
139.286
204.469
290.791
388.605
482.522
559.039
603.332
606.456
569.291
493.55
384.746
257.306
124.301
3.452
-83.082
-128.157
-133.399
-110.37
-82.006
-61.097
-51.525
-51.3
-51.338
-48.241
-43.655
-39.74
-39.974
-44.88
-52.399
-60.884
-68.574
-74.217
-77.584
-78.614
-77.502
-74.835
-71.214
-67.178
-63.284
-59.969
-57.414
-55.669
-54.658
-54.204
-54.175
-54.462
-54.962
-55.591
-56.298
-57.043
-57.793
-58.513
-59.15
-59.641
-59.925
-59.982
-59.827
-59.5
-59.069
-58.591
-58.107
-57.649
-57.23
-56.844
-56.469
-56.089
-55.696
-55.294
-54.9
-54.531
-54.208
-53.935
-53.697
-53.466
-53.191
-52.83
-52.349
-51.729
-50.966
-50.077
-49.093
-48.043
-46.951
-45.833
-44.693
-43.53
-42.34
-41.118
-39.859
-38.567
-37.253
-35.93
-34.607
-33.287
-31.964
-30.623
-29.244
-27.805
-26.287
-24.674
-22.957
-21.129
-19.188
-17.135
-14.976
-12.713
-10.348
-7.88
-5.309
-2.636
0.135
2.999
5.948
8.974
12.069
15.222
18.424
21.668
24.946
28.25
31.575
34.913
38.258
41.602
44.935
48.249
51.533
54.777
57.972
61.105
64.167
67.149
70.04
72.83
75.511
78.072
80.505
82.802
84.952
86.949
88.783
90.446
91.931
93.232
94.34
95.252
95.96
96.462
96.752
96.829
96.689
96.331
95.752
94.953
93.934
92.695
91.238
89.565
87.681
85.59
83.297
80.807
78.129
75.27
72.238
69.041
65.69
62.196
58.568
54.819
50.961
47.007
42.971
38.866
34.707
30.508
26.282
22.046
17.811
13.593
9.405
5.261
1.174
-2.844
-6.78
-10.622
-14.359
-17.98
-21.474
-24.833
-28.047
-31.11
-34.013
-36.75
-39.317
-41.708
-43.92
-45.949
-47.795
-49.455
-50.931
-52.223
-53.333
-54.265
-55.021
-55.607
-56.029
-56.291
-56.401
-56.365
-56.191
-55.886
-55.458
-54.915
-54.266
-53.519
-52.682
-51.764
-50.775
-49.723
-48.615
-47.462
-46.27
-45.048
-43.804
-42.545
-41.279
-40.012
-38.75
-37.501
-36.268
-35.058
-33.874
-32.72
-31.6
-30.515
-29.468
-28.46
-27.492
-26.564
-25.676
-24.828
-24.02
-23.251
-22.521
-21.827
-21.17
-20.547
-19.957
-19.399
-18.87
-18.37
-17.896
-17.447
-17.02
-16.616
-16.231
-15.865
-15.517
-15.185
-14.869
-14.567
-14.28
-14.007
-13.748
-13.503
-13.274
-13.061
-12.867
-12.692
-12.54
-12.412
-12.31
-12.237
-12.195
-12.185
-12.211
-12.273
-12.374
-12.515
-12.697
-12.923
-13.192
-13.507
-13.868
-14.274
-14.727
-15.226
-15.77
-16.359
-16.991
-17.665
-18.38
-19.133
-19.921
-20.743
-21.596
-22.475
-23.377
-24.298
-25.233
-26.178
-27.128
-28.076
-29.019
-29.951
-30.866
-31.76
-32.629
-33.467
-34.272
-35.039
-35.765
-36.447
-37.083
-37.669
-38.204
-38.686
-39.113
-39.485
-39.801
-40.062
-40.266
-40.417
-40.513
-40.558
-40.553
-40.501
-40.403
-40.264
-40.084
-39.87
-39.623
-39.348
-39.05
-38.733
-38.402
-38.062
-37.716
-37.369
-37.023
-36.683
-36.35
-36.026
-35.713
-35.41
-35.118
-34.835
-34.563
-34.299
-34.044
-33.797
-33.557
-33.322
-33.093
-32.866
-32.638
-32.406
-32.163
-31.904
-31.622
-31.312
-30.968
-30.584
-30.155
-29.678
-29.149
-28.565
-27.921
-27.21
-26.424
-25.555
-24.603
-23.568
-22.456
-21.277
-20.049
-18.788
-17.516
-16.248
-14.994
-13.761
-12.542
-11.335
-10.132
-8.934
-7.752
-6.595
-5.469
-4.379
-3.321
-2.286
-1.254
-0.203
0.899
2.069
3.312
4.616
5.946
7.26
8.501
9.622
10.593
11.39
11.99
12.373
12.518
12.397
11.985
11.257
10.175
8.718
6.879
4.675
2.153
-0.613
-3.534
-6.524
-9.511
-12.437
-15.252
-17.912
-20.384
-22.645
-24.693
-26.547
-28.223
-29.761
-31.191
-32.542
-33.878
-35.258
-36.768
-38.522
-40.546
-42.8
-45.311
-48.132
-51.259
-54.72
-58.361
-61.763
-64.743
-67.333
-69.156
-69.663
-68.646
-65.629
-61.307
-58.2
-56.54
-55.272
-52.783
-43.844
-27.392
-8.025
9.928
17.607
9.914
-6.634
-23.355
-26.302
-1.981
49.865
124.96
215.284
310.35
406.352
498.79
578.314
633.635
652.054
626.527
562.353
473.098
374.618
281.644
200.355
131.628
75.97
30.441
-5.202
-30.473
-47.255
-54.236
-51.526
-41.291
-25.307
-7.801
7.31
18.455
24.864
26.603
24.048
17.603
8.245
-2.387
-12.417
-20.653
-26.698
-30.352
-31.484
-30.203
-26.822
-22.07
-17.042
-12.422
-8.475
-5.403
-3.3
-2.197
-2.113
-2.85
-4.016
-5.382
-6.85
-8.351
-9.892
-11.436
-12.917
-14.332
-15.707
-17.037
-18.286
-19.394
-20.296
-20.974
-21.438
-21.706
-21.796
-21.722
-21.497
-21.145
-20.682
-20.118
-19.446
-18.656
-17.754
-16.757
-15.699
-14.629
-13.578
-12.562
-11.596
-10.686
-9.833
-9.04
-8.298
-7.593
-6.922
-6.284
-5.689
-5.15
-4.663
-4.221
-3.805
-3.39
-2.958
-2.491
-1.97
-1.38
-0.709
0.053
0.911
1.863
2.913
4.07
5.34
6.735
8.26
9.918
11.713
13.644
15.711
17.914
20.248
22.711
25.3
28.011
30.842
33.793
36.859
40.036
43.318
46.7
50.173
53.73
57.361
61.056
64.804
68.595
72.418
76.262
80.114
83.964
87.799
91.606
95.374
99.089
102.738
106.309
109.789
113.165
116.425
119.556
122.547
125.386
128.063
130.567
132.889
135.019
136.948
138.67
140.176
141.462
142.521
143.349
143.943
144.301
144.421
144.304
143.95
143.361
142.54
141.491
140.218
138.727
137.024
135.118
133.015
130.724
128.256
125.621
122.83
119.895
116.827
113.64
110.347
106.961
103.496
99.966
96.384
92.764
89.12
85.466
81.815
78.18
74.574
71.008
67.493
64.041
60.662
57.364
54.157
51.048
48.044
45.151
42.375
39.721
37.192
34.791
32.523
30.387
28.385
26.518
24.786
23.187
21.72
20.382
19.173
18.087
17.123
16.274
15.539
14.911
14.385
13.957
13.62
13.37
13.201
13.108
13.084
13.126
13.228
13.385
13.593
13.848
14.144
14.48
14.85
15.251
15.68
16.135
16.611
17.106
17.617
18.143
18.68
19.227
19.78
20.339
20.901
21.464
22.027
22.588
23.145
23.698
24.246
24.788
25.323
25.85
26.369
26.878
27.378
27.867
28.345
28.81
29.262
29.699
30.12
30.525
30.912
31.281
31.629
31.957
32.262
32.545
32.805
33.04
33.251
33.437
33.598
33.735
33.848
33.937
34.003
34.046
34.067
34.066
34.044
34.002
33.938
33.855
33.752
33.63
33.49
33.331
33.156
32.964
32.757
32.534
32.298
32.049
31.787
31.513
31.229
30.934
30.631
30.319
30
29.673
29.338
28.996
28.645
28.286
27.917
27.537
27.145
26.741
26.322
25.888
25.438
24.97
24.486
23.982
23.459
22.915
22.351
21.764
21.155
20.523
19.867
19.188
18.484
17.757
17.005
16.228
15.428
14.603
13.755
12.883
11.989
11.073
10.138
9.184
8.215
7.233
6.242
5.244
4.243
3.242
2.246
1.257
0.278
-0.685
-1.631
-2.555
-3.454
-4.325
-5.163
-5.966
-6.731
-7.456
-8.136
-8.771
-9.358
-9.895
-10.381
-10.814
-11.192
-11.515
-11.783
-11.993
-12.147
-12.246
-12.29
-12.281
-12.222
-12.115
-11.965
-11.774
-11.546
-11.286
-10.997
-10.685
-10.353
-10.005
-9.646
-9.281
-8.913
-8.548
-8.188
-7.838
-7.5
-7.179
-6.875
-6.592
-6.331
-6.092
-5.877
-5.687
-5.52
-5.377
-5.256
-5.157
-5.076
-5.011
-4.958
-4.913
-4.871
-4.827
-4.774
-4.705
-4.615
-4.497
-4.343
-4.148
-3.903
-3.603
-3.241
-2.81
-2.305
-1.721
-1.052
-0.295
0.554
1.497
2.537
3.672
4.903
6.227
7.643
9.146
10.73
12.388
14.115
15.901
17.736
19.61
21.512
23.428
25.346
27.253
29.135
30.975
32.758
34.467
36.088
37.604
38.998
40.255
41.358
42.295
43.054
43.626
43.998
44.161
44.099
43.805
43.274
42.503
41.492
40.244
38.766
37.074
35.196
33.157
30.985
28.702
26.325
23.879
21.389
18.886
16.407
13.982
11.634
9.387
7.26
5.266
3.407
1.663
-0.023
-1.704
-3.437
-5.267
-7.21
-9.295
-11.562
-14.054
-16.822
-19.897
-23.263
-26.916
-30.895
-35.194
-39.745
-44.369
-48.689
-52.341
-55.095
-56.711
-56.848
-55.272
-51.912
-46.935
-41.062
-35.011
-29.019
-23.554
-19.412
-17.06
-16.64
-16.734
-13.892
-5.477
9.216
27.614
45.667
61.948
78.225
102.841
145.004
209.14
296.607
397.721
496.009
576.379
622.276
624.38
584.703
508.029
403.824
287.029
168.987
63.012
-15.72
-63.338
-81.381
-77.691
-67.686
-58.803
-52.803
-48.846
-41.976
-31.882
-21.347
-12.603
-8.554
-10.132
-16.413
-26.303
-37.911
-49.117
-58.834
-66.575
-72.172
-75.766
-77.375
-77.143
-75.761
-74.242
-73.258
-73.124
-73.91
-75.512
-77.993
-81.406
-85.566
-90.143
-94.846
-99.491
-104.003
-108.358
-112.459
-116.198
-119.524
-122.43
-124.944
-127.088
-128.859
-130.255
-131.288
-131.987
-132.389
-132.53
-132.441
-132.16
-131.728
-131.191
-130.599
-129.99
-129.392
-128.827
-128.308
-127.844
-127.44
-127.094
-126.8
-126.557
-126.359
-126.206
-126.098
-126.032
-126.005
-126.014
-126.056
-126.129
-126.231
-126.357
-126.505
-126.672
-126.859
-127.066
-127.295
-127.545
-127.814
-128.099
-128.397
-128.703
-129.013
-129.316
-129.603
-129.867
-130.105
-130.323
-130.526
-130.714
-130.888
-131.046
-131.184
-131.299
-131.378
-131.4
-131.341
-131.176
-130.882
-130.447
-129.853
-129.077
-128.088
-126.848
-125.319
-123.48
-121.313
-118.812
-115.977
-112.824
-109.388
-105.727
-101.914
-98.035
-94.18
-90.445
-86.933
-83.736
-80.977
-78.814
-77.353
-76.633
-76.588
-77.008
-77.659
-78.342
-78.775
-78.594
-77.543
-75.48
-72.557
-69.374
-66.576
-64.719
-64.4
-66.125
-70.156
-76.528
-84.589
-92.734
-99.067
-101.579
-97.965
-86.059
-63.856
-29.364
17.427
