Name
Date of Birth,"Jan 30, 1994"
Recorded Date,2024-09-07 23:30:03 -0700
Classification,Sinus Rhythm
Symptoms,
Software Version,1.90
Device,"Watch6,3"
Sample Rate,512 hertz


Lead,Lead I
Unit,µV

-114.67
-122.752
-131.59
-141.077
-151.113
-161.597
-172.4
-183.371
-194.36
-205.206
-215.728
-225.736
-234.996
-243.285
-250.434
-256.306
-260.806
-263.876
-265.469
-265.563
-264.155
-261.239
-256.824
-250.946
-243.648
-235.005
-225.136
-214.193
-202.388
-189.949
-177.069
-163.925
-150.684
-137.49
-124.494
-111.821
-99.57
-87.84
-76.737
-66.349
-56.753
-47.998
-40.083
-32.974
-26.591
-20.828
-15.59
-10.775
-6.274
-1.979
2.227
6.444
10.742
15.19
19.867
24.847
30.192
35.95
42.135
48.742
55.753
63.128
70.829
78.804
86.992
95.325
103.73
112.149
120.544
128.879
137.117
145.225
153.172
160.937
168.516
175.904
183.097
190.094
196.897
203.516
209.962
216.254
222.406
228.429
234.322
240.083
245.706
251.182
256.501
261.647
266.6
271.342
275.857
280.13
284.146
287.887
291.338
294.479
297.295
299.772
301.897
303.66
305.051
306.064
306.692
306.934
306.788
306.255
305.336
304.033
302.349
300.29
297.862
295.074
291.935
288.455
284.647
280.524
276.103
271.399
266.431
261.218
255.779
250.135
244.31
238.326
232.207
225.977
219.659
213.276
206.852
200.407
193.965
187.544
181.163
174.842
168.6
162.458
156.434
150.545
144.806
139.233
133.838
128.631
123.618
118.801
114.181
109.761
105.542
101.532
97.731
94.134
90.733
87.519
84.476
81.584
78.815
76.127
73.48
70.841
68.189
65.512
62.796
60.028
57.193
54.274
51.268
48.171
44.979
41.689
38.298
34.822
31.3
27.795
24.368
21.065
17.903
14.882
12.001
9.241
6.581
3.975
1.352
-1.349
-4.184
-7.208
-10.478
-14.081
-18.139
-22.793
-28.172
-34.382
-41.493
-49.55
-58.588
-68.607
-79.575
-91.414
-104.002
-117.23
-130.989
-145.149
-159.562
-174.036
-188.34
-202.249
-215.563
-228.094
-239.688
-250.202
-259.504
-267.511
-274.177
-279.506
-283.54
-286.299
-287.828
-288.214
-287.585
-286.128
-284.053
-281.532
-278.714
-275.741
-272.742
-269.845
-267.168
-264.785
-262.748
-261.089
-259.833
-259.03
-258.697
-258.799
-259.257
-259.942
-260.72
-261.508
-262.237
-262.842
-263.269
-263.462
-263.379
-263.016
-262.369
-261.43
-260.177
-258.567
-256.583
-254.245
-251.607
-248.75
-245.749
-242.649
-239.491
-236.312
-233.143
-230.011
-226.924
-223.869
-220.838
-217.835
-214.873
-211.983
-209.177
-206.453
-203.797
-201.185
-198.596
-196.018
-193.434
-190.827
-188.185
-185.5
-182.771
-180.008
-177.218
-174.399
-171.549
-168.659
-165.722
-162.735
-159.696
-156.601
-153.449
-150.236
-146.962
-143.63
-140.241
-136.795
-133.292
-129.729
-126.104
-122.419
-118.675
-114.87
-111.007
-107.086
-103.106
-99.071
-94.983
-90.844
-86.655
-82.42
-78.142
-73.826
-69.477
-65.1
-60.696
-56.267
-51.814
-47.341
-42.85
-38.34
-33.815
-29.28
-24.744
-20.22
-15.722
-11.251
-6.805
-2.377
2.049
6.482
10.936
15.43
19.978
24.585
29.245
33.937
38.636
43.334
48.031
52.743
57.481
62.234
66.986
71.717
76.393
80.976
85.418
89.638
93.575
97.205
100.537
103.621
106.521
109.278
111.921
114.471
116.952
119.414
121.898
124.434
127.071
129.87
132.923
136.374
140.334
144.847
149.909
155.451
161.383
167.629
174.109
180.73
187.386
193.972
200.402
206.621
212.566
218.148
223.238
227.662
231.276
234.009
235.831
236.768
236.869
236.188
234.799
232.815
230.361
227.545
224.446
221.109
217.578
213.922
210.238
206.65
203.257
200.119
197.275
194.74
192.52
190.608
188.972
187.551
186.271
185.087
183.977
182.943
181.993
181.125
180.32
179.559
178.838
178.161
177.538
176.979
176.484
176.064
175.741
175.548
175.521
175.674
175.999
176.482
177.108
177.865
178.755
179.773
180.906
182.145
183.479
184.909
186.454
188.134
189.957
191.938
194.089
196.432
199.018
201.885
205.052
208.534
212.313
216.36
220.652
225.154
229.814
234.573
239.337
243.998
248.465
252.639
256.42
259.708
262.37
264.292
265.394
265.615
264.936
263.369
260.928
257.642
253.571
248.783
243.385
237.514
231.288
224.826
218.244
211.651
205.169
198.907
192.933
187.277
181.941
176.897
172.1
167.496
162.989
158.458
153.762
148.742
143.226
137.007
129.951
122.052
113.432
104.368
95.179
86.123
77.503
69.759
63.141
57.503
52.354
46.771
39.763
30.784
19.449
5.206
-12.029
-31.522
-51.848
-70.564
-84.748
-92.151
-90.908
-78.866
-54.215
-16.339
34.212
95.428
162.304
230.004
296.026
355.588
406.202
446.352
467.844
467.25
443.529
393.936
324.978
240.035
139.613
31.331
-77.057
-172.128
-238.297
-268.25
-264.481
-237.724
-200.5
-165.645
-138.408
-119.201
-109.94
-106.02
-105.3
-108.276
-112.014
-118.547
-128.873
-140.896
-154.422
-167.391
-177.978
-186.144
-191.335
-193.693
-194.041
-193.152
-192.014
-191.292
-191.154
-191.692
-193.051
-195.309
-198.454
-202.241
-206.213
-210.05
-213.613
-216.846
-219.763
-222.343
-224.537
-226.358
-227.879
-229.166
-230.268
-231.21
-231.981
-232.589
-233.062
-233.437
-233.763
-234.091
-234.461
-234.911
-235.466
-236.149
-236.98
-237.974
-239.139
-240.475
-241.976
-243.639
-245.463
-247.449
-249.593
-251.886
-254.312
-256.856
-259.504
-262.242
-265.059
-267.94
-270.872
-273.842
-276.836
-279.845
-282.857
-285.859
-288.835
-291.769
-294.645
-297.445
-300.156
-302.761
-305.248
-307.601
-309.811
-311.867
-313.762
-315.49
-317.042
-318.41
-319.586
-320.562
-321.331
-321.886
-322.221
-322.33
-322.21
-321.861
-321.288
-320.493
-319.48
-318.249
-316.795
-315.118
-313.227
-311.126
-308.827
-306.344
-303.691
-300.896
-298
-295.039
-292.047
-289.047
-286.043
-283.047
-280.073
-277.135
-274.247
-271.407
-268.595
-265.799
-263.02
-260.248
-257.479
-254.679
-251.777
-248.718
-245.463
-241.99
-238.32
-234.456
-230.379
-226.097
-221.625
-217.036
-212.477
-208.053
-203.829
-199.87
-196.196
-192.908
-190.238
-188.26
-186.911
-186.139
-185.794
-185.919
-186.853
-188.699
-191.306
-194.729
-199.092
-204.582
-211.655
-220.221
-229.535
-239.149
-248.833
-258.159
-266.743
-274.027
-279.104
-281.833
-282.902
-282.74
-281.65
-280.018
-278.078
-276.297
-275.465
-275.729
-276.584
-277.707
-278.855
-279.868
-280.823
-281.628
-281.96
-281.807
-281.445
-281.065
-280.831
-280.78
-280.753
-280.662
-280.532
-280.337
-280.029
-279.568
-278.896
-278.001
-276.941
-275.755
-274.461
-273.062
-271.529
-269.846
-268.023
-266.079
-264.044
-261.955
-259.838
-257.717
-255.621
-253.57
-251.578
-249.656
-247.8
-246.006
-244.272
-242.606
-241.021
-239.529
-238.139
-236.857
-235.684
-234.622
-233.67
-232.828
-232.089
-231.449
-230.906
-230.455
-230.097
-229.832
-229.657
-229.57
-229.568
-229.644
-229.792
-230.006
-230.279
-230.603
-230.968
-231.369
-231.797
-232.245
-232.707
-233.176
-233.644
-234.105
-234.551
-234.975
-235.37
-235.728
-236.044
-236.311
-236.522
-236.672
-236.757
-236.773
-236.716
-236.583
-236.372
-236.078
-235.702
-235.241
-234.693
-234.059
-233.337
-232.529
-231.635
-230.658
-229.599
-228.462
-227.249
-225.964
-224.61
-223.19
-221.709
-220.171
-218.58
-216.94
-215.256
-213.534
-211.779
-209.996
-208.189
-206.365
-204.528
-202.683
-200.835
-198.988
-197.147
-195.315
-193.497
-191.696
-189.916
-188.161
-186.432
-184.733
-183.066
-181.431
-179.831
-178.267
-176.737
-175.244
-173.786
-172.362
-170.973
-169.617
-168.293
-166.998
-165.732
-164.492
-163.275
-162.079
-160.901
-159.737
-158.585
-157.44
-156.301
-155.162
-154.021
-152.875
-151.719
-150.551
-149.368
-148.165
-146.941
-145.692
-144.416
-143.111
-141.775
-140.406
-139.003
-137.565
-136.091
-134.58
-133.032
-131.448
-129.827
-128.169
-126.476
-124.747
-122.985
-121.189
-119.362
-117.505
-115.62
-113.708
-111.772
-109.814
-107.836
-105.841
-103.831
-101.809
-99.778
-97.74
-95.698
-93.654
-91.61
-89.568
-87.53
-85.499
-83.476
-81.461
-79.456
-77.462
-75.48
-73.509
-71.55
-69.602
-67.666
-65.741
-63.826
-61.92
-60.022
-58.13
-56.244
-54.361
-52.48
-50.598
-48.713
-46.822
-44.922
-43.01
-41.084
-39.139
-37.172
-35.18
-33.159
-31.105
-29.014
-26.884
-24.71
-22.489
-20.217
-17.891
-15.509
-13.067
-10.562
-7.993
-5.357
-2.651
0.124
2.972
5.892
8.886
11.954
15.094
18.306
21.589
24.941
28.359
31.842
35.386
38.987
42.644
46.351
50.104
53.898
57.728
61.587
65.47
69.37
73.28
77.191
81.097
84.991
88.865
92.713
96.526
100.298
104.021
107.688
111.293
114.825
118.277
121.641
124.912
128.085
131.156
134.123
136.983
139.736
142.38
144.92
147.353
149.678
151.89
153.982
155.957
157.826
159.597
161.277
162.876
164.405
165.877
167.314
168.726
170.114
171.479
172.816
174.13
175.443
176.772
178.141
179.562
181.023
182.522
184.065
185.642
187.239
188.831
190.37
191.84
193.259
194.64
196.012
197.392
198.771
200.153
201.54
202.947
204.415
205.98
207.656
209.48
211.497
213.762
216.37
219.364
222.729
226.456
230.505
234.835
239.431
244.252
249.237
254.32
259.403
264.38
269.174
273.695
277.84
281.514
284.579
286.94
288.556
289.384
289.415
288.656
287.099
284.761
281.693
277.954
273.638
268.88
263.793
258.483
253.055
247.583
242.152
236.858
231.793
227.057
222.747
218.915
215.575
212.767
210.55
208.893
207.686
206.664
205.411
203.702
201.555
199.006
196.128
193.088
189.953
187.05
185.144
184.583
185.359
187.397
190.229
193.363
196.676
199.757
201.707
202.125
200.663
196.906
191.126
183.672
174.736
164.604
153.834
142.937
132.674
125.841
124.964
130.338
143.138
161.453
183.415
214.639
257.827
316.165
392.234
475.557
558.926
637.198
703.502
762.288
811.838
844.151
855.354
834.692
779.86
699.63
598.954
491.444
390.666
301.863
235.422
192.8
166.259
151.807
141.764
132.872
129.772
133.351
142.704
155.379
166.152
172.423
174.092
171.179
163.978
153.09
139.599
125.361
112.331
101.625
93.488
88.077
85.788
86.712
90.494
96.201
102.503
108.557
114.043
118.748
122.463
125.042
126.421
126.803
126.648
126.242
125.692
125.049
124.297
123.455
122.576
121.694
120.818
119.992
119.294
118.785
118.524
118.538
118.817
119.344
120.089
121.014
122.078
123.255
124.526
125.89
127.359
128.915
130.513
132.102
133.611
134.991
136.215
137.253
138.087
138.708
139.117
139.326
139.356
139.218
138.909
138.423
137.743
136.867
135.808
134.584
133.223
131.753
130.191
128.562
126.889
125.192
123.487
121.783
120.082
118.394
116.733
115.114
113.557
112.078
110.691
109.408
108.239
107.195
106.285
105.515
104.892
104.421
104.109
103.963
103.991
104.2
104.594
105.176
105.949
106.914
108.07
109.415
110.946
112.657
114.545
116.602
118.821
121.196
123.717
126.374
129.157
132.053
135.05
138.135
141.292
144.507
147.763
151.043
154.33
157.607
160.855
164.056
167.192
170.244
173.195
176.025
178.717
181.254
183.618
185.794
187.766
189.52
191.041
192.318
193.34
194.096
194.579
194.78
194.694
194.315
193.639
192.664
191.389
189.815
187.943
185.777
183.322
180.585
177.574
174.299
170.771
167.002
163.008
158.801
154.399
149.818
145.076
140.192
135.184
130.072
124.874
119.609
114.298
108.957
103.606
98.262
92.941
87.661
82.437
77.283
72.213
67.241
62.379
57.638
53.029
48.559
44.236
40.067
36.057
32.209
28.525
25.006
21.65
18.457
15.421
12.538
9.802
7.205
4.739
2.393
0.158
-1.977
-4.023
-5.992
-7.897
-9.748
-11.558
-13.338
-15.1
-16.857
-18.618
-20.395
-22.199
-24.041
-25.931
-27.878
-29.892
-31.98
-34.151
-36.413
-38.771
-41.232
-43.799
-46.478
-49.27
-52.179
-55.204
-58.346
-61.603
-64.973
-68.454
-72.041
-75.729
-79.514
-83.391
-87.353
-91.393
-95.507
-99.687
-103.926
-108.217
-112.555
-116.93
-121.337
-125.768
-130.215
-134.671
-139.128
-143.581
-148.02
-152.439
-156.832
-161.191
-165.509
-169.78
-173.997
-178.156
-182.251
-186.276
-190.229
-194.104
-197.9
-201.612
-205.24
-208.782
-212.235
-215.599
-218.872
-222.054
-225.143
-228.138
-231.039
-233.844
-236.554
-239.168
-241.685
-244.105
-246.427
-248.653
-250.78
-252.81
-254.742
-256.577
-258.314
-259.955
-261.499
-262.947
-264.3
-265.557
-266.72
-267.789
-268.762
-269.641
-270.424
-271.111
-271.701
-272.193
-272.586
-272.88
-273.073
-273.165
-273.155
-273.044
-272.832
-272.518
-272.104
-271.589
-270.974
-270.26
-269.449
-268.541
-267.539
-266.443
-265.255
-263.979
-262.615
-261.167
-259.637
-258.026
-256.338
-254.575
-252.741
-250.838
-248.871
-246.844
-244.76
-242.624
-240.441
-238.217
-235.956
-233.663
-231.344
-229.004
-226.646
-224.277
-221.901
-219.521
-217.143
-214.771
-212.408
-210.059
-207.727
-205.414
-203.125
-200.862
-198.628
-196.424
-194.253
-192.116
-190.017
-187.956
-185.934
-183.955
-182.017
-180.124
-178.274
-176.468
-174.706
-172.988
-171.312
-169.677
-168.083
-166.527
-165.01
-163.528
-162.082
-160.669
-159.288
-157.938
-156.618
-155.326
-154.062
-152.823
-151.61
-150.421
-149.256
-148.115
-146.996
-145.9
-144.827
-143.776
-142.747
-141.74
-140.754
-139.788
-138.844
-137.919
-137.013
-136.127
-135.259
-134.41
-133.579
-132.765
-131.97
-131.191
-130.429
-129.684
-128.954
-128.239
-127.538
-126.849
-126.172
-125.505
-124.846
-124.193
-123.546
-122.901
-122.256
-121.61
-120.959
-120.3
-119.631
-118.948
-118.249
-117.53
-116.79
-116.025
-115.233
-114.412
-113.561
-112.678
-111.763
-110.815
-109.833
-108.817
-107.768
-106.685
-105.569
-104.422
-103.243
-102.036
-100.801
-99.542
-98.262
-96.964
-95.651
-94.328
-92.999
-91.668
-90.339
-89.019
-87.712
-86.424
-85.162
-83.932
-82.741
-81.596
-80.503
-79.47
-78.501
-77.602
-76.778
-76.032
-75.368
-74.787
-74.29
-73.878
-73.553
-73.316
-73.166
-73.103
-73.128
-73.239
-73.436
-73.716
-74.075
-74.507
-75.004
-75.56
-76.164
-76.809
-77.485
-78.184
-78.896
-79.612
-80.327
-81.03
-81.711
-82.356
-82.949
-83.475
-83.925
-84.294
-84.58
-84.787
-84.926
-85.011
-85.055
-85.07
-85.059
-85.021
-84.941
-84.807
-84.603
-84.323
-83.971
-83.551
-83.063
-82.507
-81.875
-81.154
-80.318
-79.336
-78.169
-76.796
-75.206
-73.414
-71.458
-69.389
-67.278
-65.183
-63.143
-61.195
-59.368
-57.688
-56.181
-54.871
-53.781
-52.947
-52.416
-52.222
-52.384
-52.892
-53.699
-54.733
-55.889
-57.078
-58.233
-59.297
-60.236
-61.023
-61.651
-62.153
-62.588
-63.006
-63.434
-63.879
-64.355
-64.93
-65.697
-66.772
-68.287
-70.318
-72.947
-76.295
-80.378
-85.108
-90.264
-95.412
-100.118
-104.095
-107.005
-108.447
-108.215
-106.282
-102.936
-98.92
-94.852
-91.022
-87.767
-85.481
-84.273
-83.83
-83.156
-80.478
-74.16
-62.831
-44.89
-18.571
17.941
64.612
118.546
176.12
233.653
290.997
353.775
424.735
501.686
576.018
626.634
634.54
589.892
490.052
352.112
201.85
63.291
-38.458
-94.954
-112.331
-102.826
-86.802
-75.755
-71.396
-71.667
-69.15
-61.856
-52.602
-43.995
-39.845
-41.146
-46.104
-53.212
-60.648
-66.569
-70.298
-71.586
-70.35
-67.14
-62.625
-57.361
-52.025
-47.3
-43.522
-40.831
-39.26
-38.629
-38.782
-39.607
-40.923
-42.564
-44.408
-46.362
-48.349
-50.301
-52.113
-53.664
-54.868
-55.674
-56.06
-56.023
-55.563
-54.693
-53.439
-51.848
-49.962
-47.82
-45.457
-42.908
-40.215
-37.43
-34.609
-31.808
-29.068
-26.419
-23.878
-21.457
-19.163
-16.997
-14.952
-13.016
-11.183
-9.447
-7.806
-6.258
-4.796
-3.414
-2.101
-0.849
0.349
1.501
2.614
3.694
4.746
5.774
6.782
7.773
8.753
9.728
10.706
11.695
12.704
13.741
14.817
15.939
17.117
18.358
19.671
21.064
22.542
24.115
25.789
27.571
29.467
31.483
33.625
35.898
38.304
40.847
43.529
46.351
49.314
52.417
55.66
59.04
62.556
66.203
69.977
73.874
77.886
82.006
86.226
90.537
94.928
99.389
103.907
108.471
113.066
117.679
122.295
126.899
131.475
136.006
140.475
144.865
149.158
153.335
157.38
161.275
165.004
168.548
171.893
175.023
177.923
180.58
182.98
185.11
186.961
188.521
189.783
190.738
191.382
191.708
191.715
191.401
190.765
189.808
188.533
186.944
185.047
182.847
180.354
177.578
174.53
171.224
167.672
163.892
159.899
155.71
151.344
146.818
142.153
137.366
132.477
127.506
122.472
117.394
112.29
107.18
102.08
97.007
91.978
87.007
82.108
77.295
72.579
67.972
63.482
59.12
54.893
50.808
46.87
43.084
39.451
35.975
32.654
29.488
26.474
23.608
20.885
18.301
15.849
13.522
11.311
9.21
7.208
5.298
3.469
1.712
0.018
-1.622
-3.216
-4.774
-6.303
-7.81
-9.302
-10.785
-12.265
-13.747
-15.235
-16.734
-18.248
-19.779
-21.331
-22.904
-24.499
-26.117
-27.757
-29.416
-31.094
-32.787
-34.491
-36.202
-37.916
-39.628
-41.333
-43.024
-44.696
-46.342
-47.955
-49.529
-51.058
-52.536
-53.956
-55.314
-56.605
-57.824
-58.968
-60.033
-61.015
-61.912
-62.722
-63.441
-64.067
-64.6
-65.037
-65.379
-65.626
-65.776
-65.833
-65.796
-65.669
-65.452
-65.149
-64.764
-64.298
-63.757
-63.145
-62.466
-61.726
-60.931
-60.085
-59.196
-58.268
-57.308
-56.321
-55.313
-54.288
-53.253
-52.211
-51.167
-50.126
-49.094
-48.073
-47.07
-46.088
-45.132
-44.205
-43.312
-42.455
-41.639
-40.865
-40.138
-39.458
-38.828
-38.251
-37.728
-37.26
-36.847
-36.491
-36.19
-35.943
-35.75
-35.609
-35.517
-35.473
-35.474
-35.518
-35.602
-35.723
-35.878
-36.064
-36.277
-36.515
-36.772
-37.045
-37.329
-37.62
-37.914
-38.206
-38.492
-38.767
-39.026
-39.266
-39.482
-39.67
-39.824
-39.943
-40.021
-40.055
-40.042
-39.98
-39.868
-39.702
-39.483
-39.209
-38.882
-38.5
-38.064
-37.575
-37.035
-36.445
-35.807
-35.123
-34.396
-33.631
-32.829
-31.996
-31.136
-30.253
-29.351
-28.437
-27.515
-26.589
-25.666
-24.75
-23.847
-22.962
-22.101
-21.268
-20.469
-19.708
-18.99
-18.318
-17.695
-17.125
-16.609
-16.151
-15.752
-15.414
-15.137
-14.923
-14.771
-14.682
-14.654
-14.688
-14.78
-14.929
-15.133
-15.388
-15.691
-16.038
-16.426
-16.851
-17.308
-17.794
-18.303
-18.831
-19.373
-19.924
-20.48
-21.037
-21.589
-22.132
-22.664
-23.18
-23.676
-24.151
-24.602
-25.024
-25.418
-25.779
-26.106
-26.397
-26.65
-26.864
-27.038
-27.171
-27.264
-27.315
-27.326
-27.297
-27.228
-27.121
-26.976
-26.795
-26.578
-26.327
-26.042
-25.724
-25.376
-24.997
-24.59
-24.153
-23.688
-23.195
-22.674
-22.123
-21.543
-20.932
-20.288
-19.612
-18.902
-18.158
-17.377
-16.561
-15.707
-14.815
-13.886
-12.917
-11.909
-10.861
-9.773
-8.646
-7.478
-6.272
-5.028
-3.749
-2.437
-1.097
0.267
1.651
3.049
4.456
5.864
7.268
8.661
10.039
11.395
12.721
14.011
15.254
16.442
17.566
18.618
19.589
20.471
21.256
21.941
22.522
22.994
23.352
23.582
23.673
23.614
23.401
23.03
22.501
21.822
21.005
20.078
19.068
18.008
16.923
15.837
14.772
13.754
12.816
12
11.344
10.879
10.625
10.598
10.799
11.203
11.762
12.39
13
13.518
13.862
13.951
13.693
12.996
11.768
9.944
7.438
4.126
-0.032
-4.979
-10.536
-16.345
-22.036
-27.292
-31.706
-34.745
-36.048
-35.513
-33.4
-30.464
-27.419
-24.696
-22.829
-22.487
-24.046
-27.305
-31.172
-33.578
-32.438
-25.858
-11.599
12.748
49.351
98.086
156.094
220.072
287.501
359.479
438.371
520.879
597.393
652.838
673.154
653.753
599.114
518.973
422.066
314.282
202.75
98.49
15.191
-36.684
-57.063
-57.172
-50.183
-45.211
-44.291
-41.871
-34.687
-23.902
-12.187
-3.959
-1.194
-2.872
-7.683
-14.144
-20.674
-26.039
-29.509
-30.708
-29.813
-27.456
-24.218
-20.561
-17.062
-14.293
-12.561
-12.015
-12.601
-14.08
-16.272
-19.033
-22.187
-25.564
-29.023
-32.432
-35.687
-38.709
-41.398
-43.673
-45.482
-46.788
-47.584
-47.877
-47.687
-47.046
-46.001
-44.597
-42.877
-40.883
-38.657
-36.247
-33.707
-31.091
-28.453
-25.831
-23.255
-20.749
-18.326
-15.994
-13.754
-11.602
-9.53
-7.533
-5.61
-3.76
-1.983
-0.275
1.367
2.95
4.477
5.955
7.386
8.775
10.127
11.444
12.728
13.983
15.211
16.417
17.608
18.79
19.973
21.165
22.374
23.61
24.883
26.202
27.574
29.01
30.516
32.102
33.775
35.543
37.415
39.398
41.499
43.724
46.081
48.574
51.207
53.986
56.911
59.986
63.212
66.589
70.116
73.793
77.616
81.583
85.689
89.929
94.295
98.781
103.377
108.074
112.861
117.726
122.658
127.644
132.67
137.721
142.783
147.84
152.876
157.873
162.814
167.681
172.456
177.12
181.657
186.047
190.274
194.319
198.167
201.802
205.206
208.367
211.268
213.898
216.244
218.295
220.041
221.474
222.586
223.372
223.827
223.948
223.734
223.185
222.301
221.085
219.541
217.676
215.495
213.008
210.225
207.158
203.82
200.224
196.386
192.323
188.05
183.585
178.947
174.153
169.223
164.176
159.031
153.807
148.524
143.201
137.857
132.509
127.176
121.874
116.621
111.43
106.318
101.299
96.385
91.59
86.925
82.4
78.024
73.807
69.753
65.87
62.161
58.63
55.279
52.109
49.119
46.31
43.679
41.224
38.942
36.829
34.88
33.089
31.451
29.96
28.609
27.392
26.301
25.329
24.47
23.715
23.059
22.494
22.012
21.607
21.27
20.995
20.774
20.601
20.469
20.372
20.304
20.259
20.232
20.218
20.211
20.207
20.201
20.19
20.169
20.134
20.082
20.01
19.915
19.793
19.643
19.462
19.247
18.995
18.706
18.375
18.002
17.584
17.119
16.606
16.043
15.429
14.763
14.043
13.271
12.443
11.562
10.625
9.634
8.589
7.491
6.341
5.141
3.893
2.598
1.26
-0.118
-1.534
-2.984
-4.465
-5.973
-7.505
-9.056
-10.622
-12.2
-13.783
-15.369
-16.953
-18.53
-20.096
-21.646
-23.177
-24.685
-26.165
-27.614
-29.028
-30.403
-31.736
-33.024
-34.266
-35.457
-36.597
-37.685
-38.72
-39.702
-40.632
-41.509
-42.337
-43.116
-43.848
-44.537
-45.184
-45.794
-46.369
-46.912
-47.428
-47.919
-48.39
-48.843
-49.282
-49.71
-50.13
-50.544
-50.955
-51.365
-51.777
-52.192
-52.612
-53.039
-53.474
-53.919
-54.373
-54.836
-55.31
-55.792
-56.281
-56.776
-57.274
-57.772
-58.269
-58.759
-59.239
-59.706
-60.155
-60.58
-60.979
-61.346
-61.676
-61.966
-62.211
-62.408
-62.554
-62.645
-62.68
-62.657
-62.574
-62.43
-62.225
-61.957
-61.627
-61.236
-60.784
-60.272
-59.702
-59.076
-58.396
-57.666
-56.889
-56.069
-55.21
-54.316
-53.394
-52.447
-51.482
-50.505
-49.521
-48.538
-47.561
-46.597
-45.652
-44.733
-43.843
-42.99
-42.177
-41.408
-40.689
-40.021
-39.407
-38.851
-38.353
-37.915
-37.538
-37.222
-36.968
-36.775
-36.642
-36.568
-36.552
-36.59
-36.682
-36.824
-37.012
-37.244
-37.515
-37.822
-38.161
-38.526
-38.913
-39.317
-39.733
-40.157
-40.582
-41.005
-41.421
-41.825
-42.213
-42.583
-42.93
-43.252
-43.548
-43.814
-44.051
-44.256
-44.429
-44.571
-44.681
-44.76
-44.809
-44.83
-44.825
-44.796
-44.745
-44.676
-44.591
-44.494
-44.389
-44.279
-44.168
-44.061
-43.962
-43.876
-43.806
-43.757
-43.734
-43.741
-43.782
-43.862
-43.983
-44.149
-44.362
-44.625
-44.939
-45.304
-45.722
-46.192
-46.714
-47.286
-47.908
-48.575
-49.286
-50.036
-50.822
-51.638
-52.478
-53.337
-54.208
-55.085
-55.959
-56.824
-57.672
-58.495
-59.284
-60.031
-60.728
-61.364
-61.931
-62.421
-62.824
-63.132
-63.337
-63.431
-63.409
-63.264
-62.991
-62.585
-62.043
-61.362
-60.54
-59.577
-58.473
-57.231
-55.853
-54.344
-52.71
-50.959
-49.101
-47.145
-45.104
-42.989
-40.813
-38.592
-36.339
-34.068
-31.795
-29.536
-27.307
-25.126
-23.011
-20.98
-19.051
-17.243
-15.572
-14.055
-12.705
-11.534
-10.551
-9.766
-9.189
-8.836
-8.716
-8.837
-9.206
-9.824
-10.689
-11.794
-13.121
-14.643
-16.333
-18.161
-20.103
-22.137
-24.239
-26.381
-28.532
-30.65
-32.694
-34.628
-36.418
-38.033
-39.455
-40.681
-41.738
-42.682
-43.571
-44.456
-45.375
-46.358
-47.458
-48.739
-50.264
-52.102
-54.303
-56.939
-60.133
-63.937
-68.285
-72.972
-77.634
-81.87
-85.368
-87.759
-88.531
-87.328
-84.137
-79.346
-73.766
-68.256
-63.358
-59.597
-57.814
-58.595
-61.683
-65.896
-69.21
-69.317
-64.182
-51.641
-28.813
7.014
55.832
115.036
181.589
252.617
329.007
413.313
501.868
584.742
645.943
668.995
647.315
585.994
499.875
404.911
311.459
224.213
142.267
65.785
-1.245
-55.99
-97.18
-123.249
-134.884
-132.35
-112.885
-81.54
-48.726
-23.59
-17.162
-29.871
-51.856
-74.844
-89.843
-94.223
-93.064
-89.54
-86.214
-83.911
-80.497
-75.507
-69.669
-63.681
-58.69
-55.138
-52.808
-51.575
-51.319
-51.891
-53.145
-54.915
-57.034
-59.388
-61.928
-64.566
-67.186
-69.659
-71.849
-73.657
-75.026
-75.925
-76.343
-76.284
-75.766
-74.82
-73.496
-71.84
-69.897
-67.713
-65.33
-62.798
-60.178
-57.532
-54.919
-52.386
-49.963
-47.668
-45.511
-43.496
-41.62
-39.876
-38.248
-36.728
-35.308
-33.982
-32.747
-31.596
-30.518
-29.503
-28.54
-27.622
-26.74
-25.888
-25.061
-24.254
-23.463
-22.686
-21.919
-21.159
-20.399
-19.633
-18.853
-18.051
-17.221
-16.355
-15.446
-14.486
-13.47
-12.391
-11.245
-10.026
-8.728
-7.346
-5.877
-4.315
-2.656
-0.898
0.963
2.929
5.002
7.185
9.478
11.883
14.4
17.028
19.768
22.617
25.574
28.635
31.798
35.056
38.406
41.84
45.353
48.935
52.578
56.274
60.012
63.781
67.571
71.369
75.163
78.939
82.683
86.382
90.021
93.584
97.057
100.424
103.67
106.78
109.738
112.529
115.138
117.55
119.751
121.727
123.465
124.953
126.18
127.135
127.812
128.201
128.297
128.094
127.591
126.784
125.673
124.259
122.545
120.533
118.231
115.645
112.785
109.659
106.281
102.663
98.82
94.765
90.517
86.09
81.505
76.778
71.93
66.981
61.949
56.857
51.723
46.569
41.414
36.277
31.177
26.131
21.157
16.269
11.483
6.814
2.272
-2.13
-6.383
-10.477
-14.406
-18.163
-21.745
-25.148
-28.372
-31.416
-34.283
-36.973
-39.493
-41.846
-44.039
-46.078
-47.973
-49.733
-51.366
-52.885
-54.299
-55.621
-56.863
-58.035
-59.15
-60.218
-61.251
-62.26
-63.254
-64.242
-65.234
-66.237
-67.259
-68.306
-69.384
-70.497
-71.649
-72.842
-74.079
-75.359
-76.684
-78.051
-79.459
-80.905
-82.386
-83.899
-85.437
-86.996
-88.57
-90.151
-91.734
-93.31
-94.872
-96.412
-97.922
-99.394
-100.822
-102.197
-103.514
-104.765
-105.945
-107.048
-108.07
-109.006
-109.854
-110.61
-111.273
-111.841
-112.314
-112.693
-112.978
-113.17
-113.272
-113.287
-113.216
-113.064
-112.834
-112.531
-112.159
-111.723
-111.228
-110.68
-110.083
-109.442
-108.765
-108.055
-107.318
-106.559
-105.782
-104.992
-104.193
-103.389
-102.582
-101.775
-100.971
-100.17
-99.374
-98.581
-97.793
-97.008
-96.225
-95.441
-94.654
-93.862
-93.062
-92.25
-91.424
-90.579
-89.712
-88.82
-87.899
-86.945
-85.956
-84.928
-83.858
-82.745
-81.584
-80.376
-79.118
-77.808
-76.447
-75.032
-73.565
-72.045
-70.474
-68.852
-67.182
-65.466
-63.707
-61.91
-60.077
-58.213
-56.324
-54.414
-52.488
-50.552
-48.613
-46.675
-44.744
-42.827
-40.929
-39.056
-37.212
-35.402
-33.632
-31.904
-30.223
-28.591
-27.011
-25.485
-24.015
-22.602
-21.247
-19.952
-18.715
-17.538
-16.418
-15.356
-14.348
-13.394
-12.49
-11.633
-10.821
-10.05
-9.316
-8.615
-7.943
-7.296
-6.67
-6.06
-5.461
-4.87
-4.282
-3.693
-3.1
-2.499
-1.889
-1.266
-0.629
0.023
0.691
1.376
2.078
2.796
3.531
4.282
5.047
5.826
6.616
7.416
8.223
9.036
9.852
10.668
11.481
12.29
13.09
13.879
14.654
15.412
16.15
16.865
17.555
18.215
18.845
19.44
20
20.523
21.007
21.451
21.856
22.22
22.545
22.832
23.081
23.294
23.474
23.621
23.739
23.829
23.894
23.938
23.961
23.969
23.963
23.946
23.921
23.893
23.863
23.835
23.811
23.795
23.79
23.799
23.824
23.867
23.932
24.02
24.134
24.275
24.445
24.646
24.877
25.14
25.433
25.755
26.105
26.479
26.876
27.293
27.727
28.176
28.637
29.106
29.584
30.068
30.554
31.04
31.521
31.991
32.446
32.88
33.286
33.658
33.989
34.274
34.509
34.691
34.816
34.877
34.865
34.773
34.601
34.349
34.018
33.613
33.145
32.627
32.083
31.537
31.007
30.51
30.055
29.65
29.303
29.018
28.801
28.65
28.551
28.489
28.447
28.398
28.313
28.145
27.832
27.316
26.546
25.474
24.064
22.291
20.148
17.644
14.8
11.66
8.281
4.731
1.09
-2.551
-6.093
-9.422
-12.402
-14.899
-16.78
-17.91
-18.166
-17.453
-15.718
-12.942
-9.142
-4.363
1.324
7.824
15.007
22.729
30.838
39.17
47.545
55.767
63.627
70.896
77.351
82.815
87.154
90.281
92.141
92.712
92.003
90.068
87.009
82.943
77.988
72.262
65.894
59.042
51.893
44.666
37.571
30.776
24.416
18.595
13.403
8.905
5.127
2.028
-0.483
-2.501
-4.1
-5.326
-6.242
-6.946
-7.568
-8.259
-9.153
-10.331
-11.883
-13.959
-16.637
-19.876
-23.509
-27.122
-30.24
-32.511
-33.511
-32.733
-29.966
-25.306
-19.151
-12.555
-6.656
-2.314
-0.641
-2.677
-8.602
-17.802
-28.969
-39.65
-46.898
-47.875
-38.986
-16.418
20.298
68.461
125.628
187.902
256.283
337.87
430.996
528.537
614.939
662.605
657.083
595.417
484.085
348.547
209.624
84.049
-10.584
-72.865
-104.687
-111.587
-109.016
-103.852
-98.63
-94.452
-85.74
-71.959
-56.858
-43.003
-34.007
-31.114
-32.656
-37.111
-43.016
-48.679
-52.876
-54.994
-54.762
-52.462
-48.784
-44.328
-39.587
-35.149
-31.525
-28.976
-27.613
-27.348
-27.956
-29.263
-31.12
-33.366
-35.856
-38.462
-41.071
-43.574
-45.878
-47.905
-49.596
-50.914
-51.844
-52.376
-52.512
-52.279
-51.713
-50.853
-49.739
-48.402
-46.871
-45.187
-43.401
-41.565
-39.735
-37.951
-36.237
-34.615
-33.096
-31.685
-30.384
-29.181
-28.059
-27.007
-26.016
-25.08
-24.193
-23.346
-22.527
-21.726
-20.931
-20.132
-19.321
-18.491
-17.633
-16.741
-15.81
-14.837
-13.819
-12.752
-11.63
-10.447
-9.195
-7.87
-6.464
-4.971
-3.386
-1.702
0.085
1.979
3.982
6.1
8.332
10.683
13.153
15.742
18.452
21.281
24.231
27.298
30.483
33.783
37.196
40.719
44.349
48.083
51.917
55.846
59.865
63.969
68.152
72.409
76.73
81.111
85.542
90.016
94.525
99.057
103.605
108.158
112.705
117.236
121.74
126.206
130.622
134.977
139.258
143.455
147.555
151.547
155.416
159.152
162.742
166.173
169.432
172.508
175.389
178.061
180.515
182.739
184.723
186.457
187.933
189.141
190.074
190.728
191.095
191.172
190.955
190.444
189.637
188.534
187.138
185.452
183.481
181.229
178.704
175.913
172.865
169.571
166.041
162.287
158.323
154.161
149.818
145.308
140.647
135.854
130.944
125.935
120.845
115.692
110.494
105.268
100.032
94.802
89.594
84.425
79.309
74.26
69.292
64.416
59.644
54.986
50.45
46.045
41.776
37.649
33.669
29.839
26.162
22.638
19.267
16.05
12.985
10.068
7.297
4.668
2.175
-0.188
-2.426
-4.546
-6.556
-8.463
-10.273
-11.996
-13.638
-15.206
-16.709
-18.153
-19.545
-20.892
-22.198
-23.469
-24.711
-25.927
-27.122
-28.297
-29.456
-30.602
-31.735
-32.856
-33.968
-35.07
-36.163
-37.247
-38.321
-39.385
-40.438
-41.479
-42.507
-43.52
-44.516
-45.495
-46.455
-47.394
-48.31
-49.204
-50.073
-50.916
-51.734
-52.526
-53.291
-54.031
-54.745
-55.435
-56.102
-56.748
-57.375
-57.985
-58.58
-59.164
-59.739
-60.308
-60.874
-61.44
-62.008
-62.582
-63.164
-63.756
-64.362
-64.983
-65.622
-66.281
-66.961
-67.665
-68.394
-69.148
-69.93
-70.74
-71.577
-72.444
-73.339
-74.263
-75.214
-76.193
-77.197
-78.226
-79.278
-80.35
-81.441
-82.548
-83.668
-84.798
-85.936
-87.077
-88.22
-89.36
-90.495
-91.622
-92.737
-93.837
-94.919
-95.981
-97.018
-98.028
-99.009
-99.958
-100.873
-101.75
-102.588
-103.385
-104.138
-104.844
-105.503
-106.111
-106.668
-107.172
-107.62
-108.012
-108.347
-108.625
-108.844
-109.004
-109.105
-109.148
-109.133
-109.061
-108.932
-108.747
-108.51
-108.22
-107.881
-107.494
-107.063
-106.589
-106.075
-105.525
-104.941
-104.326
-103.685
-103.02
-102.334
-101.633
-100.92
-100.199
-99.475
-98.752
-98.034
-97.326
-96.633
-95.959
-95.309
-94.687
-94.098
-93.544
-93.029
-92.558
-92.133
-91.757
-91.432
-91.159
-90.94
-90.777
-90.668
-90.614
-90.615
-90.669
-90.775
-90.932
-91.137
-91.389
-91.684
-92.021
-92.394
-92.802
-93.24
-93.703
-94.188
-94.689
-95.201
-95.719
-96.237
-96.75
-97.251
-97.736
-98.198
-98.631
-99.032
-99.393
-99.711
-99.98
-100.196
-100.357
-100.458
-100.496
-100.47
-100.377
-100.218
-99.99
-99.695
-99.332
-98.902
-98.407
-97.847
-97.226
-96.544
-95.805
-95.011
-94.165
-93.271
-92.332
-91.352
-90.336
-89.289
-88.216
-87.121
-86.012
-84.892
-83.768
-82.645
-81.529
-80.425
-79.338
-78.273
-77.235
-76.228
-75.257
-74.325
-73.435
-72.588
-71.787
-71.032
-70.324
-69.66
-69.04
-68.461
-67.922
-67.421
-66.955
-66.523
-66.121
-65.748
-65.403
-65.083
-64.784
-64.501
-64.227
-63.954
-63.676
-63.383
-63.066
-62.715
-62.321
-61.877
-61.379
-60.819
-60.19
-59.482
-58.681
-57.777
-56.768
-55.652
-54.425
-53.092
-51.66
-50.146
-48.576
-46.97
-45.336
-43.676
-41.984
-40.254
-38.486
-36.676
-34.82
-32.914
-30.949
-28.92
-26.835
-24.683
-22.446
-20.089
-17.555
-14.812
-11.854
-8.69
-5.347
-1.86
1.736
5.384
9.015
12.567
15.983
19.223
22.265
25.062
27.548
29.644
31.246
32.283
32.72
32.538
31.742
30.362
28.444
26.069
23.349
20.376
17.22
13.94
10.572
7.184
3.868
0.723
-2.143
-4.649
-6.744
-8.384
-9.561
-10.307
-10.692
-10.813
-10.782
-10.684
-10.589
-10.577
-10.727
-11.133
-11.884
-13.09
-14.889
-17.341
-20.427
-23.978
-27.638
-31.034
-33.819
-35.602
-36.018
-34.849
-32.079
-28.155
-23.971
-20.385
-18.124
-17.762
-19.585
-23.717
-30.166
-37.85
-44.62
-48.472
-46.169
-34.662
-13.296
19.825
64.039
114.697
170.6
229.795
291.828
364.187
450.804
547.419
645.509
724.877
759.832
739.482
660.765
530.194
373.911
213.571
69.446
-33.941
-90.726
-103.846
-81.778
-46.617
-15.707
4.097
9.626
5.555
0.563
-3.261
-5.28
-5.062
-6.884
-11.79
-18.538
-27.018
-34.444
-38.937
-40.71
-39.715
-36.665
-32.567
-27.881
-23.153
-19.033
-15.813
-13.579
-12.322
-11.895
-12.176
-13.081
-14.493
-16.257
-18.251
-20.398
-22.641
-24.917
-27.134
-29.179
-30.937
-32.338
-33.351
-33.957
-34.149
-33.937
-33.332
-32.364
-31.077
-29.509
-27.699
-25.685
-23.502
-21.197
-18.822
-16.43
-14.074
-11.794
-9.611
-7.542
-5.596
-3.776
-2.08
-0.502
0.972
2.349
3.635
4.837
5.958
7.005
7.987
8.913
9.793
10.635
11.447
12.234
13.003
13.759
14.505
15.247
15.987
16.73
17.483
18.253
19.05
19.884
20.762
21.695
22.694
23.767
24.923
26.17
27.516
28.966
30.527
32.205
34.004
35.93
37.985
40.174
42.498
44.96
47.56
50.3
53.178
56.193
59.345
62.63
66.047
69.591
73.258
77.045
80.946
84.953
89.06
93.257
97.535
101.883
106.287
110.735
115.213
119.705
124.198
128.675
133.121
137.519
141.854
146.108
150.266
154.311
158.226
161.994
165.6
169.027
172.261
175.287
178.089
180.655
182.971
185.024
186.803
188.296
189.492
190.382
190.957
191.211
191.136
190.73
189.989
188.914
187.504
185.764
183.697
181.309
178.608
175.602
172.301
168.716
164.861
160.749
156.394
151.813
147.021
142.038
136.879
131.565
126.114
120.544
114.875
109.127
103.319
97.472
91.605
85.738
79.892
74.086
68.34
62.672
57.101
51.642
46.312
41.126
36.097
31.237
26.556
22.065
17.771
13.682
9.804
6.141
2.697
-0.527
-3.53
-6.311
-8.872
-11.216
-13.344
-15.261
-16.971
-18.478
-19.789
-20.908
-21.843
-22.602
-23.192
-23.622
-23.901
-24.04
-24.048
-23.936
-23.714
-23.393
-22.982
-22.492
-21.932
-21.311
-20.639
-19.925
-19.176
-18.402
-17.608
-16.803
-15.992
-15.182
-14.378
-13.584
-12.806
-12.048
-11.314
-10.608
-9.934
-9.297
-8.7
-8.145
-7.637
-7.178
-6.77
-6.415
-6.113
-5.866
-5.675
-5.538
-5.457
-5.431
-5.459
-5.541
-5.676
-5.863
-6.101
-6.387
-6.721
-7.101
-7.525
-7.992
-8.501
-9.05
-9.638
-10.264
-10.926
-11.623
-12.353
-13.112
-13.899
-14.711
-15.544
-16.395
-17.26
-18.138
-19.025
-19.918
-20.814
-21.712
-22.608
-23.499
-24.385
-25.262
-26.128
-26.981
-27.821
-28.646
-29.456
-30.25
-31.028
-31.79
-32.536
-33.266
-33.98
-34.677
-35.356
-36.018
-36.663
-37.292
-37.904
-38.5
-39.084
-39.656
-40.218
-40.774
-41.323
-41.869
-42.412
-42.954
-43.497
-44.042
-44.592
-45.146
-45.709
-46.281
-46.863
-47.457
-48.063
-48.682
-49.311
-49.951
-50.601
-51.258
-51.92
-52.587
-53.258
-53.932
-54.609
-55.287
-55.965
-56.643
-57.319
-57.992
-58.66
-59.319
-59.965
-60.597
-61.214
-61.811
-62.388
-62.941
-63.47
-63.977
-64.461
-64.924
-65.361
-65.773
-66.158
-66.516
-66.846
-67.148
-67.418
-67.656
-67.869
-68.063
-68.248
-68.43
-68.603
-68.762
-68.902
-69.02
-69.11
-69.164
-69.169
-69.121
-69.027
-68.905
-68.777
-68.651
-68.532
-68.412
-68.284
-68.15
-68.019
-67.903
-67.812
-67.762
-67.778
-67.899
-68.166
-68.603
-69.204
-69.94
-70.775
-71.68
-72.629
-73.605
-74.594
-75.581
-76.551
-77.492
-78.394
-79.226
-79.944
-80.486
-80.786
-80.801
-80.516
-79.945
-79.117
-78.074
-76.867
-75.547
-74.151
-72.71
-71.238
-69.743
-68.235
-66.745
-65.312
-63.985
-62.824
-61.873
-61.168
-60.727
-60.539
-60.571
-60.76
-61.046
-61.383
-61.741
-62.107
-62.472
-62.822
-63.143
-63.421
-63.636
-63.763
-63.773
-63.628
-63.297
-62.774
-62.079
-61.255
-60.343
-59.373
-58.365
-57.332
-56.287
-55.243
-54.207
-53.175
-52.144
-51.122
-50.121
-49.166
-48.279
-47.47
-46.737
-46.067
-45.448
-44.873
-44.336
-43.832
-43.352
-42.888
-42.439
-42.011
-41.61
-41.236
-40.885
-40.55
-40.224
-39.905
-39.591
-39.282
-38.977
-38.674
-38.37
-38.061
-37.747
-37.423
-37.082
-36.715
-36.311
-35.863
-35.365
-34.811
-34.196
-33.51
-32.74
-31.881
-30.931
-29.891
-28.766
-27.561
-26.287
-24.96
-23.604
-22.244
-20.902
-19.596
-18.333
-17.115
-15.951
-14.845
-13.808
-12.84
-11.925
-11.043
-10.177
-9.305
-8.408
-7.456
-6.396
-5.186
-3.794
-2.199
-0.408
1.56
3.688
5.947
8.302
10.707
13.088
15.356
17.447
19.294
20.841
22.036
22.795
23.052
22.764
21.899
20.463
18.484
15.988
13.021
9.652
5.954
2.033
-1.986
-6.013
-9.971
-13.797
-17.468
-20.949
-24.214
-27.267
-30.108
-32.74
-35.201
-37.544
-39.822
-42.123
-44.534
-47.113
-49.991
-53.331
-57.153
-61.356
-65.668
-69.577
-72.62
-74.469
-74.655
-72.665
-68.385
-61.964
-54.073
-46.075
-39.108
-33.967
-31.618
-32.74
-37.087
-43.779
-50.838
-55.11
-53.57
-43.364
-21.359
15.21
65.991
127.893
197.594
270.136
345.362
428.184
515.839
602.222
674.652
710.073
697.875
635.974
528.206
395.933
257.188
128.715
31.013
-31.134
-58.901
-59.894
-52.811
-47.416
-46.789
-50.326
-50.496
-45.313
-37.788
-30.539
-27.283
-29.067
-34.154
-41.095
-48.527
-55.01
-59.582
-61.776
-61.457
-59.008
-55.147
-50.49
-45.556
-40.923
-37.093
-34.333
-32.756
-32.293
-32.756
-34
-35.896
-38.299
-41.061
-44.052
-47.163
-50.286
-53.328
-56.173
-58.702
-60.831
-62.508
-63.705
-64.414
-64.645
-64.41
-63.74
-62.681
-61.271
-59.553
-57.569
-55.358
-52.972
-50.468
-47.899
-45.319
-42.768
-40.271
-37.846
-35.502
-33.242
-31.066
-28.967
-26.934
-24.961
-23.044
-21.181
-19.37
-17.607
-15.886
-14.2
-12.545
-10.915
-9.307
-7.719
-6.148
-4.593
-3.053
-1.528
-0.017
1.482
2.973
4.461
5.951
7.451
8.967
10.504
12.071
13.674
15.319
17.013
18.76
20.566
22.438
24.379
26.395
28.492
30.672
32.941
35.302
37.758
40.312
42.967
45.723
48.583
51.547
54.616
57.787
61.061
64.436
67.907
71.472
75.125
78.862
82.674
86.554
90.494
94.483
98.511
102.566
106.637
110.709
114.77
118.807
122.804
126.747
130.62
134.409
138.098
141.67
145.111
148.404
151.533
154.484
157.24
159.788
162.114
164.203
166.042
167.62
168.926
169.948
170.678
171.108
171.231
171.042
170.538
169.716
168.577
167.121
165.352
163.274
160.894
158.218
155.256
152.019
148.518
144.766
140.778
136.569
132.155
127.555
122.785
117.866
112.817
107.657
102.406
97.086
91.716
86.317
80.91
75.515
70.152
64.84
59.599
54.446
49.399
44.473
39.684
35.044
30.567
26.262
22.14
18.208
14.473
10.94
7.614
4.496
1.588
-1.109
-3.599
-5.882
-7.964
-9.848
-11.541
-13.05
-14.381
-15.542
-16.542
-17.39
-18.096
-18.669
-19.121
-19.461
-19.701
-19.851
-19.924
-19.929
-19.876
-19.776
-19.638
-19.471
-19.281
-19.078
-18.868
-18.656
-18.449
-18.251
-18.067
-17.901
-17.754
-17.63
-17.53
-17.455
-17.406
-17.383
-17.385
-17.413
-17.466
-17.543
-17.643
-17.766
-17.91
-18.072
-18.253
-18.449
-18.658
-18.878
-19.107
-19.344
-19.586
-19.832
-20.082
-20.335
-20.59
-20.847
-21.106
-21.368
-21.633
-21.901
-22.174
-22.453
-22.739
-23.033
-23.338
-23.654
-23.983
-24.327
-24.686
-25.062
-25.455
-25.865
-26.293
-26.738
-27.2
-27.68
-28.177
-28.69
-29.22
-29.766
-30.326
-30.901
-31.489
-32.087
-32.695
-33.309
-33.928
-34.548
-35.168
-35.783
-36.392
-36.99
-37.576
-38.144
-38.693
-39.218
-39.716
-40.185
-40.62
-41.02
-41.382
-41.705
-41.988
-42.229
-42.428
-42.584
-42.698
-42.768
-42.796
-42.782
-42.725
-42.628
-42.49
-42.313
-42.099
-41.848
-41.564
-41.249
-40.905
-40.534
-40.14
-39.726
-39.296
-38.852
-38.398
-37.939
-37.478
-37.018
-36.565
-36.121
-35.69
-35.275
-34.88
-34.506
-34.156
-33.833
-33.536
-33.269
-33.032
-32.825
-32.65
-32.508
-32.398
-32.321
-32.278
-32.269
-32.292
-32.349
-32.437
-32.557
-32.706
-32.885
-33.09
-33.32
-33.574
-33.848
-34.14
-34.447
-34.767
-35.097
-35.433
-35.773
-36.112
-36.449
-36.78
-37.104
-37.418
-37.72
-38.009
-38.283
-38.543
-38.786
-39.012
-39.221
-39.411
-39.583
-39.736
-39.87
-39.985
-40.08
-40.156
-40.213
-40.252
-40.273
-40.278
-40.267
-40.242
-40.203
-40.153
-40.092
-40.022
-39.947
-39.866
-39.784
-39.703
-39.623
-39.549
-39.48
-39.419
-39.367
-39.324
-39.291
-39.268
-39.254
-39.249
-39.254
-39.267
-39.288
-39.317
-39.352
-39.393
-39.439
-39.488
-39.54
-39.592
-39.643
-39.693
-39.74
-39.784
-39.823
-39.856
-39.884
-39.903
-39.915
-39.916
-39.906
-39.882
-39.844
-39.789
-39.717
-39.628
-39.519
-39.392
-39.247
-39.085
-38.906
-38.712
-38.504
-38.284
-38.053
-37.813
-37.566
-37.315
-37.063
-36.812
-36.565
-36.324
-36.092
-35.872
-35.664
-35.469
-35.288
-35.12
-34.964
-34.82
-34.686
-34.562
-34.448
-34.343
-34.247
-34.162
-34.087
-34.023
-33.97
-33.927
-33.89
-33.855
-33.82
-33.779
-33.727
-33.659
-33.567
-33.444
-33.287
-33.09
-32.846
-32.548
-32.183
-31.741
-31.222
-30.623
-29.947
-29.201
-28.391
-27.529
-26.641
-25.748
-24.868
-24.017
-23.197
-22.411
-21.661
-20.95
-20.284
-19.658
-19.052
-18.443
-17.812
-17.136
-16.393
-15.552
-14.558
-13.365
-11.944
-10.273
-8.359
-6.218
-3.863
-1.316
1.385
4.181
6.995
9.737
12.343
14.748
16.89
18.702
20.094
20.999
21.378
21.207
20.485
19.22
17.422
15.118
12.374
9.279
5.937
2.464
-1.058
-4.555
-7.954
-11.188
-14.197
-16.96
-19.494
-21.824
-23.967
-25.936
-27.738
-29.395
-30.985
-32.582
-34.266
-36.134
-38.199
-40.496
-43.121
-46.05
-49.155
-52.212
-54.791
-56.462
-57.031
-56.226
-53.663
-49.3
-43.207
-35.736
-27.871
-20.498
-14.097
-9.133
-6.202
-5.448
-6.428
-8.285
-8.214
-1.794
12.933
36.543
68.248
100.965
131.275
163.049
199.532
253.072
333.595
431.236
531.986
611.897
641.151
613.867
534.65
413.913
276.917
138.684
8.256
-97.373
-169.249
-199.994
-182.041
-126.622
-53.416
16.582
58.664
64.478
40.884
1.026
-34.35
-53.89
-57.424
-49.567
-40.502
-35.381
-33.903
-34.671
-34.44
-32.187
-28.988
-25.554
-22.717
-20.947
-20.048
-19.927
-20.565
-21.752
-23.369
-25.354
-27.614
-30.074
-32.653
-35.241
-37.723
-39.999
-41.988
-43.624
-44.856
-45.656
-46.022
-45.96
-45.494
-44.665
-43.503
-42.042
-40.319
-38.362
-36.213
-33.925
-31.549
-29.147
-26.765
-24.439
-22.195
-20.055
-18.029
-16.124
-14.34
-12.665
-11.095
-9.628
-8.262
-6.998
-5.832
-4.758
-3.769
-2.856
-2.012
-1.231
-0.506
0.17
0.801
1.394
1.951
2.474
2.969
3.441
3.897
4.345
4.792
5.248
5.721
6.221
6.759
7.345
7.988
8.697
9.481
10.346
11.301
12.352
13.502
14.757
16.118
17.589
19.175
20.88
22.708
24.662
26.746
28.962
31.315
33.807
36.438
39.204
42.103
45.132
48.294
51.591
55.023
58.582
62.261
66.048
69.931
73.895
77.913
81.95
85.97
89.948
93.869
97.727
101.516
105.226
108.849
112.378
115.819
119.183
122.474
125.691
128.835
131.918
134.971
138.048
141.192
144.42
147.728
151.096
154.501
157.915
161.299
164.594
167.718
170.595
173.169
175.4
177.246
178.655
179.545
179.819
179.399
178.239
176.32
173.64
170.2
166.022
161.153
155.673
149.694
143.309
136.588
129.584
122.351
114.955
107.483
100.033
92.679
85.48
78.481
71.718
65.229
59.034
53.125
47.469
42.012
36.718
31.573
26.572
21.714
16.991
12.387
7.887
3.491
-0.799
-4.983
-9.061
-13.037
-16.907
-20.651
-24.242
-27.644
-30.835
-33.802
-36.541
-39.047
-41.318
-43.354
-45.16
-46.751
-48.136
-49.326
-50.326
-51.143
-51.787
-52.272
-52.613
-52.826
-52.927
-52.928
-52.841
-52.68
-52.455
-52.177
-51.854
-51.491
-51.095
-50.676
-50.242
-49.802
-49.364
-48.936
-48.525
-48.139
-47.786
-47.471
-47.198
-46.971
-46.794
-46.669
-46.599
-46.584
-46.626
-46.725
-46.881
-47.095
-47.365
-47.69
-48.068
-48.498
-48.977
-49.504
-50.074
-50.687
-51.339
-52.028
-52.75
-53.504
-54.287
-55.095
-55.924
-56.772
-57.634
-58.506
-59.384
-60.264
-61.142
-62.014
-62.875
-63.724
-64.555
-65.367
-66.156
-66.918
-67.652
-68.355
-69.025
-69.658
-70.255
-70.811
-71.327
-71.801
-72.231
-72.617
-72.957
-73.251
-73.497
-73.695
-73.843
-73.942
-73.991
-73.989
-73.937
-73.835
-73.684
-73.485
-73.24
-72.949
-72.615
-72.239
-71.823
-71.37
-70.881
-70.359
-69.808
-69.228
-68.624
-67.997
-67.351
-66.688
-66.012
-65.324
-64.627
-63.924
-63.217
-62.509
-61.803
-61.1
-60.405
-59.719
-59.045
-58.385
-57.743
-57.119
-56.518
-55.939
-55.384
-54.855
-54.353
-53.878
-53.43
-53.01
-52.618
-52.254
-51.916
-51.605
-51.318
-51.056
-50.815
-50.596
-50.396
-50.213
-50.046
-49.893
-49.752
-49.622
-49.501
-49.388
-49.281
-49.177
-49.076
-48.975
-48.873
-48.767
-48.657
-48.54
-48.415
-48.282
-48.139
-47.986
-47.822
-47.647
-47.461
-47.265
-47.058
-46.841
-46.615
-46.382
-46.141
-45.896
-45.647
-45.397
-45.147
-44.899
-44.655
-44.416
-44.184
-43.961
-43.747
-43.543
-43.35
-43.171
-43.004
-42.852
-42.715
-42.593
-42.488
-42.4
-42.329
-42.274
-42.235
-42.213
-42.205
-42.211
-42.23
-42.261
-42.302
-42.352
-42.409
-42.471
-42.536
-42.6
-42.662
-42.717
-42.765
-42.801
-42.824
-42.831
-42.822
-42.793
-42.746
-42.677
-42.587
-42.475
-42.34
-42.18
-41.996
-41.787
-41.552
-41.292
-41.006
-40.695
-40.36
-40.001
-39.62
-39.218
-38.795
-38.352
-37.891
-37.414
-36.922
-36.417
-35.901
-35.378
-34.849
-34.318
-33.787
-33.257
-32.731
-32.209
-31.691
-31.176
-30.662
-30.148
-29.633
-29.115
-28.594
-28.067
-27.535
-26.997
-26.454
-25.906
-25.352
-24.788
-24.21
-23.614
-22.996
-22.353
-21.676
-20.962
-20.205
-19.402
-18.554
-17.658
-16.711
-15.704
-14.629
-13.479
-12.257
-10.962
-9.596
-8.171
-6.697
-5.197
-3.704
-2.243
-0.828
0.534
1.845
3.109
4.325
5.497
6.626
7.719
8.785
9.829
10.846
11.85
12.861
13.915
15.078
16.388
17.859
19.491
21.265
23.143
25.096
27.071
29.002
30.834
32.516
34.013
35.317
36.409
37.258
37.819
38.018
37.801
37.155
36.077
34.588
32.742
30.59
28.213
25.722
23.201
20.711
18.301
15.968
13.689
11.442
9.202
6.96
4.73
2.517
0.303
-1.943
-4.29
-6.826
-9.629
-12.748
-16.264
-20.285
-24.801
-29.716
-34.718
-39.219
-42.745
-45.017
-45.613
-44.128
-40.501
-34.737
-27.416
-19.963
-13.308
-7.881
-4.718
-4.627
-7.241
-12.362
-17.467
-16.762
-7.934
9.587
35.706
64.217
93.365
128.961
175.917
245.002
343.723
463.524
589.105
697.566
763.137
773.005
728.128
636.762
512.33
371.798
226.473
89.863
-16.577
-82.101
-101.758
-78.701
-37.215
1.57
25.127
24.39
8.593
-8.97
-22.647
-26.644
-23.618
-21.55
-22.617
-27.937
-36.45
-43.767
-48.234
-49.929
-48.936
-46.313
-42.893
-38.929
-34.945
-31.584
-29.11
-27.592
-27.035
-27.297
-28.257
-29.865
-31.989
-34.443
-37.107
-39.884
-42.681
-45.414
-47.969
-50.208
-52.043
-53.421
-54.313
-54.718
-54.639
-54.093
-53.113
-51.747
-50.043
-48.047
-45.805
-43.36
-40.768
-38.088
-35.379
-32.703
-30.107
-27.628
-25.297
-23.133
-21.145
-19.331
-17.683
-16.178
-14.794
-13.511
-12.305
-11.162
-10.068
-9.019
-8.017
-7.07
-6.184
-5.36
-4.589
-3.864
-3.183
-2.549
-1.969
-1.463
-1.059
-0.788
-0.691
-0.79
-1.093
-1.584
-2.223
-2.956
-3.718
-4.457
-5.135
-5.72
-6.182
-6.49
-6.611
-6.504
-6.121
-5.4
-4.269
-2.672
-0.572
2.037
5.127
8.652
12.543
16.743
21.205
25.887
30.758
35.786
40.941
46.188
51.492
56.805
62.065
67.219
72.221
77.048
81.693
86.166
90.486
94.666
98.711
102.621
106.395
110.034
113.544
116.928
120.193
123.345
126.392
129.34
132.2
134.971
137.651
140.239
142.737
145.154
147.51
149.814
152.067
154.251
156.332
158.265
159.998
161.487
162.703
163.615
164.2
164.433
164.292
163.744
162.753
161.271
159.238
156.613
153.372
149.523
145.103
140.17
134.803
129.074
123.041
116.756
110.264
103.606
96.823
89.961
83.069
76.208
69.457
62.88
56.533
50.447
44.627
39.062
33.718
28.57
23.596
18.784
14.129
9.633
5.3
1.135
-2.854
-6.669
-10.326
-13.837
-17.216
-20.465
-23.578
-26.541
-29.334
-31.937
-34.334
-36.515
-38.475
-40.215
-41.74
-43.061
-44.192
-45.145
-45.928
-46.55
-47.015
-47.334
-47.517
-47.577
-47.527
-47.381
-47.155
-46.861
-46.511
-46.117
-45.687
-45.228
-44.744
-44.243
-43.727
-43.203
-42.676
-42.151
-41.632
-41.125
-40.633
-40.16
-39.709
-39.281
-38.877
-38.497
-38.142
-37.812
-37.505
-37.219
-36.954
-36.707
-36.476
-36.259
-36.052
-35.854
-35.661
-35.471
-35.281
-35.09
-34.895
-34.696
-34.489
-34.275
-34.054
-33.824
-33.586
-33.34
-33.086
-32.826
-32.559
-32.288
-32.011
-31.731
-31.449
-31.166
-30.883
-30.601
-30.323
-30.049
-29.782
-29.523
-29.274
-29.038
-28.816
-28.611
-28.425
-28.26
-28.119
-28.003
-27.914
-27.853
-27.821
-27.819
-27.847
-27.907
-27.997
-28.118
-28.27
-28.451
-28.661
-28.9
-29.166
-29.459
-29.776
-30.117
-30.482
-30.868
-31.276
-31.705
-32.154
-32.623
-33.111
-33.619
-34.145
-34.689
-35.25
-35.827
-36.418
-37.022
-37.639
-38.267
-38.906
-39.554
-40.211
-40.876
-41.548
-42.227
-42.911
-43.6
-44.292
-44.988
-45.686
-46.386
-47.088
-47.79
-48.492
-49.194
-49.894
-50.591
-51.283
-51.968
-52.644
-53.309
-53.96
-54.595
-55.211
-55.806
-56.379
-56.928
-57.45
-57.944
-58.408
-58.841
-59.241
-59.607
-59.937
-60.232
-60.49
-60.71
-60.894
-61.041
-61.151
-61.225
-61.263
-61.266
-61.233
-61.167
-61.067
-60.934
-60.771
-60.577
-60.357
-60.111
-59.843
-59.556
-59.252
-58.935
-58.608
-58.273
-57.935
-57.595
-57.256
-56.923
-56.596
-56.28
-55.977
-55.689
-55.418
-55.165
-54.932
-54.718
-54.525
-54.351
-54.198
-54.063
-53.947
-53.849
-53.768
-53.703
-53.654
-53.618
-53.595
-53.581
-53.577
-53.577
-53.581
-53.586
-53.589
-53.586
-53.576
-53.556
-53.523
-53.473
-53.405
-53.315
-53.2
-53.058
-52.887
-52.685
-52.449
-52.18
-51.877
-51.54
-51.17
-50.767
-50.333
-49.869
-49.378
-48.862
-48.322
-47.761
-47.183
-46.589
-45.984
-45.37
-44.751
-44.131
-43.513
-42.902
-42.301
-41.713
-41.143
-40.593
-40.069
-39.572
-39.108
-38.68
-38.291
-37.943
-37.641
-37.386
-37.181
-37.025
-36.92
-36.866
-36.861
-36.905
-36.996
-37.131
-37.307
-37.521
-37.769
-38.045
-38.346
-38.664
-38.996
-39.334
-39.672
-40.003
-40.321
-40.619
-40.889
-41.125
-41.318
-41.463
-41.551
-41.575
-41.527
-41.401
-41.19
-40.887
-40.485
-39.98
-39.367
-38.64
-37.798
-36.837
-35.756
-34.554
-33.232
-31.791
-30.235
-28.568
-26.796
-24.926
-22.966
-20.925
-18.814
-16.645
-14.431
-12.178
-9.895
-7.593
-5.285
-2.989
-0.722
1.513
3.693
5.781
7.744
9.55
11.178
12.64
13.943
15.044
15.968
16.792
17.55
18.279
18.995
19.607
20.048
20.4
20.519
19.985
18.778
17.099
14.889
12.553
9.434
3.307
-5.286
-14.098
-19.258
-14.168
1.618
22.278
39.248
42.111
27.736
1.981
-24.204
-40.469
-42.028
-30.747
-15.487
-3.174
2.699
0.514
-5.411
-11.996
-18.448
-23.255
-27.612
-32.617
-37.963
-43.802
-49.811
-55.385
-60.253
-64.13
-66.667
-67.384
-65.751
-61.666
-55.13
-46.399
-36.49
-26.441
-17.273
-10.416
-5.704
-0.866
5.57
14.214
22.767
26.545
25.701
26.963
43.549
87.901
162.247
258.379
358.538
448.487
526.119
593.233
655.093
710.75
742.753
734.214
672.629
551.21
387.673
210.127
47.858
-66.078
-120.989
-125.712
-97.867
-64.958
-42.054
-30.199
-25.124
-17.702
-5.456
8.346
20.212
25.994
24.662
17.649
6.441
-6.444
-18.492
-28.584
-36.134
-41.009
-43.431
-43.344
-40.91
-36.979
-32.772
-29.122
-26.422
-24.744
-23.988
-24.271
-25.686
-28.031
-30.894
-33.904
-36.858
-39.672
-42.351
-44.81
-46.906
-48.572
-49.806
-50.644
-51.12
-51.245
-50.999
-50.385
-49.439
-48.203
-46.726
-45.053
-43.215
-41.256
-39.223
-37.165
-35.136
-33.175
-31.309
-29.556
-27.925
-26.419
-25.042
-23.792
-22.658
-21.629
-20.696
-19.848
-19.08
-18.385
-17.753
-17.173
-16.634
-16.125
-15.637
-15.162
-14.692
-14.218
-13.734
-13.233
-12.71
-12.16
-11.575
-10.95
-10.277
-9.548
-8.756
-7.893
-6.95
-5.92
-4.794
-3.567
-2.236
-0.794
0.759
2.427
4.208
6.101
8.105
10.218
12.442
14.777
17.223
19.779
22.447
25.226
28.115
31.112
34.212
37.408
40.691
44.059
47.506
51.035
54.64
58.314
62.048
65.833
69.654
73.494
77.326
81.112
84.824
88.441
91.95
95.347
98.628
101.788
104.825
107.738
110.53
113.207
115.775
118.227
120.574
122.831
125.026
127.213
129.43
131.688
133.995
136.344
138.713
141.084
143.424
145.676
147.786
149.697
151.349
152.702
153.705
154.298
154.42
153.984
152.917
151.179
148.739
145.573
141.682
137.074
131.769
125.837
119.356
112.406
105.088
97.492
89.705
81.82
73.925
66.115
58.483
51.104
44.04
37.36
31.112
25.342
20.097
15.376
11.156
7.411
4.08
1.098
-1.585
-4.015
-6.235
-8.276
-10.173
-11.957
-13.644
-15.259
-16.828
-18.376
-19.946
-21.556
-23.201
-24.867
-26.52
-28.109
-29.605
-30.981
-32.215
-33.3
-34.23
-35.001
-35.623
-36.107
-36.455
-36.665
-36.725
-36.627
-36.377
-35.987
-35.48
-34.886
-34.23
-33.533
-32.817
-32.098
-31.386
-30.691
-30.014
-29.352
-28.706
-28.083
-27.49
-26.935
-26.426
-25.965
-25.552
-25.189
-24.873
-24.605
-24.379
-24.192
-24.044
-23.932
-23.858
-23.823
-23.829
-23.874
-23.959
-24.082
-24.241
-24.434
-24.657
-24.906
-25.179
-25.472
-25.783
-26.11
-26.452
-26.807
-27.172
-27.548
-27.932
-28.322
-28.718
-29.117
-29.517
-29.918
-30.317
-30.713
-31.106
-31.495
-31.88
-32.259
-32.634
-33.002
-33.365
-33.721
-34.07
-34.412
-34.746
-35.071
-35.389
-35.7
-36.003
-36.3
-36.591
-36.876
-37.157
-37.432
-37.701
-37.965
-38.222
-38.472
-38.715
-38.949
-39.174
-39.391
-39.598
-39.795
-39.981
-40.156
-40.319
-40.47
-40.607
-40.729
-40.835
-40.926
-40.999
-41.055
-41.092
-41.111
-41.11
-41.091
-41.051
-40.991
-40.91
-40.809
-40.686
-40.543
-40.379
-40.196
-39.994
-39.775
-39.54
-39.291
-39.029
-38.756
-38.475
-38.186
-37.893
-37.596
-37.298
-37.001
-36.708
-36.421
-36.141
-35.873
-35.618
-35.379
-35.158
-34.957
-34.778
-34.623
-34.494
-34.392
-34.319
-34.277
-34.266
-34.289
-34.345
-34.435
-34.559
-34.716
-34.907
-35.13
-35.384
-35.666
-35.976
-36.31
-36.667
-37.045
-37.442
-37.853
-38.278
-38.713
-39.155
-39.6
-40.047
-40.492
-40.931
-41.361
-41.78
-42.185
-42.573
-42.941
-43.288
-43.61
-43.905
-44.172
-44.408
-44.611
-44.781
-44.916
-45.014
-45.076
-45.102
-45.091
-45.043
-44.96
-44.843
-44.692
-44.509
-44.296
-44.054
-43.786
-43.492
-43.175
-42.838
-42.482
-42.111
-41.725
-41.329
-40.923
-40.51
-40.092
-39.671
-39.248
-38.826
-38.405
-37.987
-37.573
-37.165
-36.763
-36.368
-35.983
-35.607
-35.243
-34.89
-34.55
-34.223
-33.911
-33.615
-33.333
-33.066
-32.815
-32.58
-32.36
-32.155
-31.965
-31.789
-31.629
-31.482
-31.351
-31.233
-31.13
-31.041
-30.967
-30.907
-30.864
-30.838
-30.829
-30.839
-30.869
-30.921
-30.995
-31.093
-31.213
-31.357
-31.522
-31.707
-31.909
-32.126
-32.354
-32.592
-32.836
-33.085
-33.335
-33.586
-33.835
-34.083
-34.327
-34.563
-34.788
-34.996
-35.182
-35.341
-35.467
-35.553
-35.591
-35.575
-35.502
-35.366
-35.163
-34.884
-34.515
-34.048
-33.484
-32.819
-32.059
-31.207
-30.269
-29.264
-28.218
-27.155
-26.1
-25.067
-24.053
-23.064
-22.102
-21.17
-20.275
-19.41
-18.554
-17.691
-16.813
-15.904
-14.954
-13.929
-12.773
-11.443
-9.908
-8.155
-6.204
-4.073
-1.781
0.636
3.127
5.623
8.029
10.271
12.299
14.062
15.515
16.597
17.226
17.343
16.912
15.915
14.362
12.272
9.666
6.598
3.16
-0.539
-4.366
-8.215
-12.017
-15.717
-19.264
-22.619
-25.762
-28.685
-31.406
-33.948
-36.313
-38.52
-40.619
-42.675
-44.794
-47.086
-49.639
-52.531
-55.85
-59.598
-63.67
-67.861
-71.821
-75.208
-77.784
-79.323
-79.489
-78.035
-74.977
-70.579
-65.358
-59.877
-54.381
-48.861
-43.714
-39.581
-36.338
-33.204
-29.303
-22.014
-9.163
8.736
33.437
64.514
98.264
135.951
177.458
223.365
281.45
354.968
440.033
529.451
605.675
646.703
641.881
586.465
484.6
356.672
220.319
94.709
0.679
-57.761
-80.11
-74.67
-59.337
-41.359
-28.622
-23.206
-20.028
-21.456
-24.788
-28.003
-32.569
-35.294
-37.522
-41.071
-45.012
-49.704
-53.556
-54.973
-54.194
-51.57
-47.862
-43.883
-40.01
-36.653
-34.127
-32.555
-31.949
-32.149
-33.009
-34.417
-36.231
-38.329
-40.581
-42.876
-45.136
-47.285
-49.224
-50.852
-52.092
-52.902
-53.268
-53.194
-52.685
-51.762
-50.456
-48.812
-46.879
-44.696
-42.304
-39.743
-37.059
-34.304
-31.534
-28.799
-26.14
-23.582
-21.143
-18.834
-16.661
-14.624
-12.717
-10.931
-9.257
-7.692
-6.232
-4.873
-3.61
-2.432
-1.332
-0.301
0.671
1.591
2.467
3.304
4.11
4.89
5.649
6.392
7.125
7.856
8.593
9.346
10.123
10.934
11.787
12.694
13.661
14.698
15.813
17.012
18.302
19.69
21.182
22.784
24.501
26.338
28.3
30.39
32.612
34.968
37.46
40.089
42.857
45.763
48.806
51.986
55.3
58.746
62.32
66.019
69.837
73.768
77.804
81.939
86.163
90.466
94.838
99.266
103.739
108.243
112.766
117.292
121.808
126.299
130.748
135.141
139.46
143.689
147.812
151.812
155.672
159.375
162.906
166.247
169.383
172.298
174.977
177.405
179.569
181.456
183.053
184.35
185.337
186.005
186.347
186.357
186.032
185.367
184.363
183.019
181.337
179.321
176.976
174.308
171.325
168.035
164.45
160.581
156.44
152.042
147.401
142.534
137.456
132.186
126.741
121.14
115.402
109.548
103.596
97.568
91.483
85.361
79.222
73.086
66.973
60.9
54.887
48.95
43.107
37.372
31.761
26.287
20.962
15.799
10.808
5.998
1.378
-3.046
-7.265
-11.277
-15.075
-18.657
-22.02
-25.163
-28.086
-30.789
-33.274
-35.542
-37.596
-39.44
-41.078
-42.516
-43.758
-44.811
-45.681
-46.377
-46.904
-47.272
-47.488
-47.561
-47.498
-47.308
-47
-46.582
-46.062
-45.448
-44.749
-43.973
-43.128
-42.222
-41.262
-40.257
-39.214
-38.139
-37.04
-35.924
-34.797
-33.665
-32.534
-31.41
-30.298
-29.204
-28.131
-27.085
-26.07
-25.089
-24.145
-23.241
-22.38
-21.564
-20.794
-20.073
-19.402
-18.782
-18.214
-17.699
-17.237
-16.828
-16.472
-16.168
-15.916
-15.715
-15.563
-15.458
-15.401
-15.388
-15.419
-15.491
-15.602
-15.751
-15.936
-16.154
-16.403
-16.68
-16.985
-17.314
-17.666
-18.039
-18.431
-18.841
-19.266
-19.705
-20.157
-20.62
-21.091
-21.571
-22.056
-22.547
-23.04
-23.536
-24.032
-24.529
-25.026
-25.521
-26.015
-26.507
-26.996
-27.481
-27.964
-28.442
-28.915
-29.384
-29.847
-30.305
-30.756
-31.202
-31.64
-32.072
-32.495
-32.911
-33.318
-33.715
-34.103
-34.48
-34.848
-35.205
-35.552
-35.89
-36.217
-36.536
-36.846
-37.147
-37.44
-37.725
-38.003
-38.274
-38.538
-38.795
-39.047
-39.293
-39.534
-39.771
-40.003
-40.233
-40.46
-40.684
-40.907
-41.129
-41.35
-41.572
-41.794
-42.017
-42.243
-42.47
-42.701
-42.934
-43.171
-43.41
-43.652
-43.896
-44.141
-44.388
-44.633
-44.878
-45.122
-45.362
-45.599
-45.832
-46.06
-46.283
-46.499
-46.708
-46.91
-47.103
-47.288
-47.463
-47.629
-47.784
-47.929
-48.063
-48.187
-48.3
-48.402
-48.494
-48.576
-48.646
-48.707
-48.758
-48.8
-48.833
-48.859
-48.877
-48.889
-48.897
-48.901
-48.902
-48.902
-48.9
-48.899
-48.897
-48.897
-48.897
-48.898
-48.901
-48.905
-48.911
-48.92
-48.93
-48.943
-48.959
-48.976
-48.995
-49.016
-49.038
-49.059
-49.081
-49.102
-49.122
-49.141
-49.158
-49.175
-49.19
-49.204
-49.217
-49.229
-49.24
-49.25
-49.261
-49.272
-49.285
-49.301
-49.322
-49.35
-49.387
-49.434
-49.494
-49.567
-49.656
-49.76
-49.881
-50.018
-50.172
-50.341
-50.528
-50.731
-50.952
-51.19
-51.446
-51.721
-52.016
-52.33
-52.661
-53.007
-53.363
-53.724
-54.086
-54.44
-54.78
-55.101
-55.394
-55.655
-55.882
-56.067
-56.202
-56.28
-56.284
-56.206
-56.042
-55.784
-55.433
-54.992
-54.47
-53.883
-53.253
-52.59
-51.899
-51.18
-50.418
-49.605
-48.731
-47.783
-46.762
-45.665
-44.487
-43.23
-41.894
-40.462
-38.912
-37.205
-35.288
-33.14
-30.753
-28.135
-25.323
-22.359
-19.297
-16.21
-13.157
-10.187
-7.348
-4.67
-2.184
0.06
2.002
3.562
4.64
5.175
5.125
4.461
3.203
1.383
-0.934
-3.641
-6.642
-9.859
-13.218
-16.672
-20.174
-23.656
-27.046
-30.254
-33.174
-35.727
-37.848
-39.483
-40.614
-41.26
-41.485
-41.417
-41.185
-40.894
-40.627
-40.453
-40.45
-40.72
-41.362
-42.462
-44.065
-46.209
-48.985
-52.433
-56.5
-61
-65.529
-69.664
-73.161
-75.786
-77.156
-76.985
-75.135
-71.763
-67.628
-63.396
-59.137
-54.991
-51.518
-49.251
-48.451
-47.563
-42.768
-31
-11.619
12.035
34.648
54.684
75.313
105.063
153.825
224.79
315.405
418.546
521.762
614.033
685.605
722.211
714.203
656.473
546.319
398.296
234.952
81.108
-33.088
-95.306
-109.389
-88.885
-59.767
-38.036
-27.758
-27.019
-25.936
-20.376
-12.357
-4.531
-1.43
-4.36
-11.323
-20.463
-29.583
-36.877
-41.859
-44.371
-44.471
-42.735
-39.807
-36.269
-32.79
-29.993
-28.176
-27.437
-27.758
-28.946
-30.825
-33.248
-36.009
-38.89
-41.706
-44.336
-46.685
-48.682
-50.259
-51.331
-51.862
-51.87
-51.381
-50.435
-49.075
-47.337
-45.272
-42.963
-40.501
-37.987
-35.541
-33.246
-31.177
-29.407
-27.975
-26.906
-26.196
-25.792
-25.646
-25.72
-25.974
-26.384
-26.923
-27.544
-28.199
-28.839
-29.398
-29.829
-30.098
-30.166
-30.025
-29.676
-29.141
-28.471
-27.71
-26.885
-26.018
-25.119
-24.19
-23.244
-22.288
-21.324
-20.366
-19.422
-18.494
-17.591
-16.71
-15.835
-14.948
-14.015
-13.006
-11.899
-10.679
-9.333
-7.857
-6.241
-4.482
-2.583
-0.542
1.644
3.979
6.468
9.114
11.916
14.871
17.975
21.221
24.604
28.118
31.759
35.522
39.403
43.395
47.497
51.703
56.006
60.396
64.863
69.394
73.977
78.598
83.243
87.897
92.543
97.167
101.754
106.286
110.747
115.121
119.389
123.536
127.543
131.394
135.071
138.557
141.835
144.89
147.707
150.27
152.567
154.584
156.308
157.73
158.84
159.629
160.088
160.211
159.991
159.429
158.525
157.282
155.703
153.792
151.557
149.008
146.153
143.003
139.567
135.854
131.877
127.651
123.197
118.535
113.684
108.658
103.47
98.135
92.668
87.089
81.412
75.653
69.829
63.961
58.077
52.205
46.372
40.597
34.888
29.25
23.697
18.258
12.976
7.899
3.054
-1.556
-5.94
-10.098
-14.017
-17.664
-21.052
-24.252
-27.283
-30.058
-32.374
-34.008
-34.902
-35.23
-35.226
-34.965
-34.543
-34.219
-34.51
-36.05
-39.106
-43.353
-48.155
-53.104
-57.912
-62.209
-65.351
-66.464
-65.102
-61.603
-56.822
-51.423
-45.811
-40.314
-35.383
-31.726
-29.791
-29.41
-29.961
-30.904
-31.949
-32.969
-33.866
-34.373
-34.261
-33.574
-32.57
-31.502
-30.499
-29.572
-28.665
-27.784
-26.976
-26.248
-25.566
-24.888
-24.185
-23.469
-22.779
-22.144
-21.575
-21.07
-20.618
-20.215
-19.861
-19.558
-19.308
-19.11
-18.962
-18.862
-18.809
-18.802
-18.839
-18.918
-19.033
-19.179
-19.352
-19.552
-19.78
-20.04
-20.33
-20.65
-20.997
-21.371
-21.77
-22.193
-22.64
-23.107
-23.594
-24.1
-24.624
-25.166
-25.727
-26.304
-26.897
-27.504
-28.124
-28.757
-29.399
-30.051
-30.71
-31.373
-32.039
-32.705
-33.369
-34.026
-34.676
-35.314
-35.938
-36.545
-37.132
-37.697
-38.238
-38.751
-39.236
-39.69
-40.112
-40.501
-40.855
-41.174
-41.456
-41.701
-41.909
-42.078
-42.209
-42.301
-42.353
-42.367
-42.342
-42.28
-42.181
-42.046
-41.877
-41.677
-41.447
-41.191
-40.911
-40.611
-40.294
-39.963
-39.624
-39.278
-38.931
-38.586
-38.246
-37.916
-37.598
-37.295
-37.01
-36.746
-36.505
-36.288
-36.099
-35.937
-35.805
-35.705
-35.636
-35.6
-35.597
-35.628
-35.692
-35.79
-35.921
-36.083
-36.276
-36.499
-36.75
-37.027
-37.328
-37.65
-37.99
-38.346
-38.715
-39.094
-39.478
-39.866
-40.254
-40.639
-41.018
-41.39
-41.75
-42.098
-42.43
-42.746
-43.044
-43.321
-43.577
-43.812
-44.023
-44.21
-44.374
-44.514
-44.63
-44.722
-44.79
-44.835
-44.857
-44.857
-44.836
-44.794
-44.732
-44.652
-44.556
-44.445
-44.32
-44.183
-44.036
-43.881
-43.719
-43.551
-43.379
-43.204
-43.027
-42.85
-42.673
-42.499
-42.327
-42.159
-41.994
-41.835
-41.68
-41.53
-41.386
-41.246
-41.113
-40.985
-40.865
-40.751
-40.647
-40.551
-40.465
-40.389
-40.323
-40.268
-40.225
-40.193
-40.173
-40.164
-40.168
-40.186
-40.218
-40.264
-40.326
-40.403
-40.498
-40.609
-40.738
-40.885
-41.051
-41.236
-41.44
-41.666
-41.913
-42.181
-42.47
-42.78
-43.11
-43.457
-43.817
-44.188
-44.565
-44.944
-45.323
-45.698
-46.064
-46.42
-46.762
-47.089
-47.396
-47.679
-47.933
-48.152
-48.331
-48.462
-48.54
-48.556
-48.504
-48.377
-48.17
-47.877
-47.491
-47.003
-46.403
-45.682
-44.838
-43.872
-42.785
-41.585
-40.281
-38.889
-37.433
-35.934
-34.413
-32.887
-31.368
-29.866
-28.392
-26.955
-25.566
-24.228
-22.932
-21.664
-20.406
-19.136
-17.829
-16.454
-14.966
-13.329
-11.519
-9.517
-7.32
-4.932
-2.369
0.347
3.183
6.091
9.011
11.868
14.575
17.055
19.233
21.033
22.383
23.218
23.497
23.191
22.288
20.791
18.722
16.117
13.029
9.533
5.709
1.662
-2.489
-6.649
-10.733
-14.671
-18.418
-21.948
-25.259
-28.373
-31.315
-34.107
-36.768
-39.326
-41.832
-44.36
-46.982
-49.774
-52.782
-56.068
-59.729
-63.749
-67.997
-72.169
-75.728
-78.205
-79.272
-78.47
-75.364
-69.86
-61.99
-52.362
-42.309
-32.705
-24.19
-17.949
-14.583
-13.768
-15.353
-16.596
-13.396
-4.616
11.995
37.01
68.38
108.469
158.526
219.716
295.5
384.482
482.769
581.412
665.946
722.673
739.042
711.098
642.104
537.576
409.59
270.643
133.989
17.83
-64.159
-105.611
-105.705
-74.509
-28.336
18.028
48.776
54.664
37.289
3.532
-32.618
-58.862
-71.156
-70.443
-63.63
-56.624
-50.659
-45.296
-38.356
-28.949
-18.741
-9.927
-4.11
-1.889
-2.846
-5.971
-10.539
-16.056
-21.678
-26.395
-29.624
-31.154
-31.277
-30.786
-30.147
-29.512
-29.102
-29.107
-29.616
-30.639
-31.955
-33.13
-33.918
-34.252
-34.112
-33.558
-32.626
-31.325
-29.718
-27.922
-26.018
-24.06
-22.085
-20.097
-18.124
-16.215
-14.41
-12.741
-11.225
-9.863
-8.652
-7.586
-6.656
-5.847
-5.152
-4.559
-4.062
-3.655
-3.332
-3.086
-2.91
-2.791
-2.715
-2.669
-2.639
-2.616
-2.591
-2.555
-2.502
-2.424
-2.313
-2.159
-1.954
-1.687
-1.348
-0.926
-0.413
0.202
0.925
1.765
2.727
3.818
5.043
6.406
7.912
9.564
11.364
13.315
15.416
17.67
20.074
22.629
25.333
28.183
31.176
34.309
37.577
40.975
44.498
48.137
51.887
55.738
59.684
63.713
67.818
71.987
76.21
80.475
84.771
89.083
93.4
97.706
101.988
106.232
110.423
114.545
118.585
122.528
126.359
130.062
133.624
137.03
140.264
143.314
146.164
148.801
151.213
153.386
155.309
156.972
158.364
159.477
160.303
160.834
161.066
160.992
160.61
159.918
158.914
157.599
155.976
154.048
151.821
149.302
146.498
143.419
140.074
136.477
132.639
128.573
124.294
119.818
115.162
110.342
105.376
100.284
95.084
89.795
84.438
79.031
73.595
68.148
62.71
57.3
51.936
46.637
41.42
36.301
31.298
26.425
21.696
17.123
12.717
8.489
4.447
0.599
-3.049
-6.492
-9.725
-12.745
-15.551
-18.141
-20.516
-22.677
-24.627
-26.37
-27.91
-29.252
-30.402
-31.367
-32.155
-32.772
-33.228
-33.532
-33.691
-33.717
-33.619
-33.408
-33.094
-32.687
-32.198
-31.637
-31.014
-30.336
-29.614
-28.855
-28.068
-27.259
-26.436
-25.607
-24.777
-23.952
-23.139
-22.343
-21.568
-20.818
-20.098
-19.411
-18.76
-18.147
-17.576
-17.048
-16.566
-16.13
-15.743
-15.405
-15.115
-14.875
-14.682
-14.537
-14.438
-14.383
-14.371
-14.401
-14.472
-14.582
-14.731
-14.916
-15.137
-15.392
-15.679
-15.997
-16.345
-16.719
-17.119
-17.543
-17.989
-18.455
-18.939
-19.438
-19.952
-20.476
-21.01
-21.551
-22.095
-22.642
-23.188
-23.733
-24.275
-24.812
-25.344
-25.871
-26.391
-26.903
-27.408
-27.904
-28.391
-28.867
-29.333
-29.787
-30.229
-30.657
-31.073
-31.474
-31.861
-32.234
-32.593
-32.937
-33.267
-33.582
-33.884
-34.172
-34.449
-34.714
-34.968
-35.213
-35.451
-35.68
-35.903
-36.119
-36.328
-36.531
-36.726
-36.913
-37.091
-37.261
-37.42
-37.568
-37.706
-37.832
-37.947
-38.05
-38.14
-38.218
-38.283
-38.335
-38.375
-38.401
-38.415
-38.417
-38.405
-38.381
-38.343
-38.292
-38.227
-38.148
-38.054
-37.945
-37.82
-37.681
-37.527
-37.359
-37.179
-36.988
-36.787
-36.579
-36.366
-36.15
-35.933
-35.718
-35.507
-35.301
-35.103
-34.915
-34.739
-34.577
-34.43
-34.299
-34.187
-34.093
-34.02
-33.968
-33.938
-33.93
-33.947
-33.988
-34.055
-34.149
-34.27
-34.418
-34.594
-34.799
-35.031
-35.29
-35.574
-35.883
-36.214
-36.565
-36.933
-37.317
-37.713
-38.118
-38.53
-38.945
-39.361
-39.773
-40.18
-40.579
-40.966
-41.338
-41.695
-42.032
-42.349
-42.642
-42.91
-43.152
-43.365
-43.548
-43.699
-43.817
-43.901
-43.95
-43.962
-43.938
-43.878
-43.782
-43.65
-43.485
-43.287
-43.06
-42.804
-42.524
-42.222
-41.902
-41.567
-41.22
-40.867
-40.51
-40.155
-39.806
-39.466
-39.14
-38.832
-38.547
-38.288
-38.058
-37.862
-37.702
-37.581
-37.502
-37.469
-37.482
-37.544
-37.657
-37.821
-38.037
-38.306
-38.627
-38.998
-39.418
-39.884
-40.393
-40.943
-41.527
-42.141
-42.78
-43.438
-44.108
-44.784
-45.458
-46.122
-46.769
-47.391
-47.978
-48.523
-49.016
-49.45
-49.816
-50.106
-50.313
-50.428
-50.446
-50.359
-50.162
-49.849
-49.414
-48.854
-48.166
-47.347
-46.396
-45.312
-44.097
-42.754
-41.286
-39.698
-37.997
-36.191
-34.289
-32.301
-30.237
-28.111
-25.935
-23.722
-21.486
-19.24
-17
-14.782
-12.6
-10.471
-8.412
-6.437
-4.566
-2.815
-1.2
0.264
1.568
2.701
3.652
4.41
4.959
5.288
5.391
5.262
4.898
4.298
3.467
2.422
1.193
-0.186
-1.687
-3.285
-4.962
-6.703
-8.48
-10.265
-12.022
-13.722
-15.346
-16.881
-18.302
-19.596
-20.76
-21.832
-22.898
-24.043
-25.338
-26.827
-28.516
-30.433
-32.63
-35.163
-38.089
-41.446
-45.219
-49.434
-54.196
-59.497
-65.207
-70.994
-76.262
-80.481
-83.302
-84.342
-83.219
-79.842
-74.357
-67.447
-60.41
-54.322
-49.957
-48.058
-49.013
-52.582
-57.987
-63.288
-65.647
-62.682
-51.853
-30.484
3.107
49.903
108.587
174.447
243.912
314.432
383.875
452.565
514.051
557.612
576.163
561.827
516.117
447.331
356.845
249.14
130.356
7.044
-101.479
-175.435
-205.644
-189.169
-137.408
-71.744
-9.132
34.107
48.684
38.286
10.946
-19.839
-41.8
-51.469
-50.721
-46.095
-42.963
-42.387
-43.326
-43.187
-40.939
-37.428
-33.577
-30.385
-28.319
-27.172
-26.829
-27.24
-28.2
-29.576
-31.267
-33.146
-35.155
-37.262
-39.395
-41.467
-43.396
-45.084
-46.452
-47.453
-48.05
-48.239
-48.024
-47.418
-46.454
-45.168
-43.595
-41.772
-39.727
-37.491
-35.104
-32.614
-30.071
-27.53
-25.032
-22.605
-20.273
-18.05
-15.942
-13.955
-12.083
-10.317
-8.651
-7.084
-5.614
-4.239
-2.956
-1.757
-0.636
0.414
1.4
2.327
3.2
4.026
4.808
5.547
6.248
6.914
7.548
8.158
8.75
9.332
9.914
10.506
11.117
11.757
12.434
13.157
13.933
14.769
15.669
16.64
17.686
18.813
20.028
21.338
22.749
24.268
25.903
27.659
29.54
31.551
33.693
35.965
38.367
40.9
43.568
46.377
49.329
52.419
55.645
58.997
62.462
66.021
69.646
73.303
76.971
80.633
84.278
87.907
91.519
95.112
98.69
102.244
105.768
109.261
112.713
116.118
119.486
122.831
126.191
129.608
133.103
136.677
140.323
144.003
147.676
151.293
154.78
158.083
161.155
163.948
166.435
168.586
170.352
171.681
172.5
172.724
172.299
171.193
169.384
166.892
163.749
160.008
155.758
151.075
146.02
140.649
134.999
129.103
123.017
116.794
110.497
104.212
97.999
91.909
85.989
80.259
74.723
69.368
64.153
59.041
54.015
49.065
44.192
39.406
34.706
30.093
25.573
21.136
16.777
12.495
8.281
4.142
0.092
-3.85
-7.651
-11.281
-14.721
-17.956
-20.979
-23.788
-26.38
-28.759
-30.932
-32.905
-34.681
-36.264
-37.656
-38.859
-39.883
-40.736
-41.43
-41.978
-42.39
-42.678
-42.85
-42.916
-42.883
-42.757
-42.544
-42.246
-41.872
-41.427
-40.918
-40.354
-39.742
-39.089
-38.404
-37.694
-36.966
-36.228
-35.486
-34.746
-34.015
-33.297
-32.6
-31.928
-31.285
-30.678
-30.11
-29.586
-29.109
-28.682
-28.309
-27.992
-27.733
-27.534
-27.398
-27.326
-27.32
-27.38
-27.507
-27.704
-27.969
-28.304
-28.707
-29.178
-29.716
-30.317
-30.979
-31.7
-32.475
-33.3
-34.172
-35.085
-36.034
-37.013
-38.019
-39.044
-40.084
-41.133
-42.185
-43.234
-44.276
-45.304
-46.315
-47.303
-48.262
-49.189
-50.08
-50.929
-51.734
-52.49
-53.193
-53.842
-54.433
-54.963
-55.431
-55.835
-56.174
-56.449
-56.658
-56.804
-56.888
-56.911
-56.877
-56.789
-56.649
-56.463
-56.234
-55.966
-55.664
-55.332
-54.975
-54.597
-54.202
-53.796
-53.383
-52.966
-52.551
-52.141
-51.74
-51.352
-50.981
-50.63
-50.302
-50.001
-49.728
-49.487
-49.279
-49.106
-48.969
-48.869
-48.807
-48.781
-48.791
-48.836
-48.913
-49.02
-49.155
-49.315
-49.497
-49.697
-49.912
-50.14
-50.376
-50.617
-50.86
-51.102
-51.339
-51.567
-51.783
-51.985
-52.169
-52.332
-52.471
-52.583
-52.665
-52.717
-52.734
-52.715
-52.658
-52.562
-52.425
-52.247
-52.028
-51.766
-51.464
-51.121
-50.74
-50.321
-49.867
-49.38
-48.863
-48.316
-47.744
-47.149
-46.534
-45.9
-45.252
-44.592
-43.923
-43.248
-42.571
-41.894
-41.221
-40.554
-39.897
-39.253
-38.623
-38.012
-37.42
-36.851
-36.308
-35.791
-35.304
-34.848
-34.426
-34.037
-33.685
-33.37
-33.092
-32.851
-32.649
-32.485
-32.359
-32.27
-32.219
-32.204
-32.225
-32.282
-32.374
-32.499
-32.657
-32.845
-33.064
-33.312
-33.587
-33.888
-34.214
-34.564
-34.937
-35.331
-35.747
-36.182
-36.636
-37.106
-37.591
-38.089
-38.597
-39.111
-39.628
-40.145
-40.658
-41.163
-41.659
-42.141
-42.607
-43.057
-43.487
-43.895
-44.278
-44.632
-44.952
-45.234
-45.473
-45.663
-45.798
-45.872
-45.879
-45.815
-45.674
-45.451
-45.136
-44.719
-44.191
-43.551
-42.797
-41.933
-40.962
-39.895
-38.744
-37.531
-36.277
-34.998
-33.711
-32.423
-31.141
-29.873
-28.626
-27.411
-26.226
-25.061
-23.897
-22.713
-21.483
-20.18
-18.768
-17.198
-15.431
-13.44
-11.208
-8.737
-6.032
-3.111
0.005
3.288
6.69
10.138
13.553
16.846
19.928
22.72
25.133
27.068
28.452
29.239
29.401
28.933
27.844
26.144
23.866
21.055
17.781
14.146
10.261
6.244
2.209
-1.749
-5.538
-9.059
-12.257
-15.135
-17.709
-20.02
-22.103
-23.959
-25.617
-27.141
-28.615
-30.147
-31.843
-33.775
-36.029
-38.737
-41.949
-45.613
-49.525
-53.241
-56.307
-58.384
-59.1
-58.014
-54.888
-49.744
-42.972
-35.533
-28.424
-22.31
-17.892
-15.912
-16.642
-19.693
-23.828
-26.7
-25.859
-19.121
-4.014
22.001
61.16
113.167
174.736
242.025
310.509
379.995
454.593
532.303
608.392
671.927
702.709
690.982
632.638
528.657
397.541
256.092
123.002
22.089
-39.639
-62.693
-56.096
-41.263
-30.009
-26.102
-28.482
-28.528
-23.107
-14.769
-6.382
-2.031
-3.065
-7.9
-14.96
-22.697
-29.762
-35.235
-38.606
-39.761
-38.976
-36.856
-33.999
-30.856
-27.921
-25.66
-24.301
-23.926
-24.468
-25.729
-27.541
-29.776
-32.282
-34.913
-37.572
-40.162
-42.594
-44.796
-46.672
-48.148
-49.187
-49.766
-49.879
-49.535
-48.751
-47.563
-46.02
-44.171
-42.06
-39.73
-37.22
-34.579
-31.862
-29.126
-26.428
-23.81
-21.303
-18.931
-16.708
-14.646
-12.748
-11.008
-9.417
-7.969
-6.659
-5.484
-4.442
-3.526
-2.727
-2.036
-1.442
-0.937
-0.51
-0.154
0.141
0.382
0.578
0.735
0.86
0.961
1.048
1.132
1.225
1.339
1.486
1.679
1.929
2.248
2.647
3.137
3.727
4.426
5.242
6.185
7.261
8.477
9.839
11.353
13.023
14.852
16.843
18.997
21.315
23.796
26.439
29.241
32.2
35.313
38.573
41.977
45.517
49.186
52.975
56.875
60.876
64.965
69.131
73.361
77.64
81.954
86.287
90.625
94.951
99.248
103.5
107.689
111.797
115.807
119.701
123.461
127.069
130.508
133.761
136.812
139.645
142.245
144.597
146.688
148.505
150.036
151.27
152.197
152.809
153.098
153.059
152.688
151.981
150.938
149.56
147.849
145.808
143.443
140.761
137.77
134.481
130.906
127.056
122.948
118.597
114.02
109.235
104.262
99.121
93.832
88.416
82.895
77.291
71.626
65.921
60.198
54.48
48.788
43.142
37.564
32.073
26.688
21.426
16.305
11.34
6.546
1.934
-2.482
-6.693
-10.689
-14.464
-18.012
-21.328
-24.409
-27.254
-29.863
-32.237
-34.38
-36.296
-37.991
-39.469
-40.74
-41.811
-42.691
-43.39
-43.919
-44.287
-44.507
-44.589
-44.546
-44.389
-44.131
-43.783
-43.356
-42.863
-42.314
-41.719
-41.09
-40.434
-39.761
-39.079
-38.396
-37.719
-37.055
-36.408
-35.784
-35.186
-34.618
-34.083
-33.583
-33.119
-32.692
-32.303
-31.95
-31.634
-31.353
-31.106
-30.893
-30.71
-30.556
-30.43
-30.328
-30.248
-30.189
-30.149
-30.124
-30.113
-30.114
-30.126
-30.147
-30.176
-30.212
-30.255
-30.305
-30.361
-30.423
-30.491
-30.567
-30.651
-30.743
-30.846
-30.959
-31.085
-31.225
-31.381
-31.554
-31.745
-31.956
-32.188
-32.443
-32.722
-33.025
-33.354
-33.709
-34.09
-34.498
-34.933
-35.395
-35.884
-36.399
-36.938
-37.501
-38.086
-38.692
-39.316
-39.955
-40.608
-41.271
-41.943
-42.618
-43.296
-43.973
-44.645
-45.309
-45.962
-46.601
-47.223
-47.825
-48.403
-48.955
-49.479
-49.972
-50.433
-50.859
-51.249
-51.602
-51.916
-52.191
-52.426
-52.619
-52.772
-52.885
-52.958
-52.991
-52.987
-52.947
-52.873
-52.767
-52.631
-52.468
-52.281
-52.072
-51.846
-51.604
-51.35
-51.088
-50.821
-50.552
-50.285
-50.022
-49.768
-49.524
-49.294
-49.079
-48.883
-48.706
-48.552
-48.422
-48.318
-48.24
-48.191
-48.171
-48.182
-48.222
-48.293
-48.395
-48.525
-48.685
-48.872
-49.085
-49.322
-49.582
-49.863
-50.163
-50.478
-50.806
-51.144
-51.489
-51.839
-52.19
-52.539
-52.883
-53.22
-53.547
-53.861
-54.16
-54.442
-54.704
-54.943
-55.159
-55.347
-55.508
-55.638
-55.736
-55.801
-55.832
-55.828
-55.787
-55.71
-55.596
-55.444
-55.255
-55.029
-54.766
-54.468
-54.135
-53.769
-53.371
-52.945
-52.491
-52.012
-51.51
-50.988
-50.447
-49.889
-49.318
-48.735
-48.143
-47.545
-46.943
-46.341
-45.741
-45.146
-44.559
-43.982
-43.419
-42.872
-42.343
-41.836
-41.354
-40.899
-40.474
-40.083
-39.728
-39.411
-39.135
-38.902
-38.712
-38.568
-38.469
-38.416
-38.41
-38.45
-38.537
-38.671
-38.852
-39.079
-39.352
-39.669
-40.03
-40.431
-40.871
-41.348
-41.858
-42.398
-42.965
-43.556
-44.167
-44.794
-45.43
-46.072
-46.714
-47.349
-47.97
-48.569
-49.139
-49.673
-50.162
-50.601
-50.983
-51.303
-51.554
-51.733
-51.837
-51.861
-51.8
-51.647
-51.398
-51.044
-50.582
-50.004
-49.305
-48.481
-47.529
-46.451
-45.249
-43.925
-42.479
-40.913
-39.224
-37.417
-35.5
-33.48
-31.371
-29.191
-26.964
-24.721
-22.497
-20.316
-18.2
-16.16
-14.202
-12.332
-10.553
-8.865
-7.281
-5.808
-4.452
-3.223
-2.125
-1.146
-0.27
0.537
1.314
2.081
2.847
3.614
4.355
5.046
5.655
6.137
6.475
6.66
6.683
6.549
6.257
5.788
5.123
4.228
3.059
1.595
-0.173
-2.248
-4.594
-7.174
-9.945
-12.85
-15.872
-19.021
-22.315
-25.785
-29.462
-33.357
-37.469
-41.798
-46.339
-51.089
-56.053
-61.235
-66.625
-72.216
-78.055
-84.105
-90.214
-96.161
-101.542
-105.938
-109.11
-110.8
-110.612
-108.359
-104.053
-97.861
-90.493
-82.765
-74.939
-67.149
-60.028
-54.023
-48.905
-44.42
-38.185
-25.865
-6.458
19.699
51.31
82.427
112.479
146.985
190.569
252.685
337.586
436.659
537.669
621.868
670.598
677.354
642.876
574.954
484.761
378.316
261.838
143.184
34.03
-48.244
-93.86
-102.834
-85.145
-60.187
-40.693
-31.067
-30.101
-30.796
-30.136
-29.29
-29.924
-34.495
-42.979
-53.25
-63.32
-71.346
-76.478
-78.775
-78.451
-75.984
-72.018
-67.185
-62.214
-57.791
-54.255
-51.725
-50.194
-49.518
-49.585
-50.307
-51.543
-53.152
-55.027
-57.073
-59.225
-61.434
-63.611
-65.66
-67.484
-68.986
-70.111
-70.839
-71.158
-71.082
-70.63
-69.819
-68.685
-67.272
-65.619
-63.772
-61.771
-59.654
-57.466
-55.255
-53.068
-50.954
-48.944
-47.054
-45.295
-43.667
-42.167
-40.794
-39.537
-38.379
-37.311
-36.323
-35.405
-34.553
-33.757
-33.007
-32.29
-31.596
-30.915
-30.238
-29.559
-28.87
-28.165
-27.439
-26.687
-25.906
-25.093
-24.239
-23.34
-22.386
-21.372
-20.289
-19.131
-17.887
-16.552
-15.122
-13.59
-11.955
-10.215
-8.368
-6.415
-4.357
-2.194
0.072
2.444
4.921
7.506
10.198
12.999
15.909
18.927
22.052
25.28
28.604
32.021
35.527
39.122
42.807
46.579
50.43
54.352
58.333
62.357
66.4
70.432
74.419
78.337
82.168
85.902
89.538
93.074
96.508
99.845
103.075
106.195
109.203
112.092
114.857
117.51
120.066
122.561
125.042
127.527
130.023
132.523
134.996
137.407
139.711
141.845
143.759
145.416
146.773
147.813
148.512
148.832
148.728
148.139
146.988
145.232
142.846
139.818
136.173
131.945
127.192
122.003
116.459
110.621
104.55
98.286
91.864
85.342
78.777
72.233
65.794
59.523
53.47
47.684
42.185
36.979
32.057
27.378
22.907
18.628
14.529
10.609
6.875
3.322
-0.051
-3.245
-6.273
-9.143
-11.863
-14.445
-16.888
-19.186
-21.327
-23.285
-25.038
-26.576
-27.891
-28.983
-29.858
-30.523
-30.986
-31.263
-31.368
-31.31
-31.102
-30.752
-30.27
-29.671
-28.97
-28.183
-27.328
-26.418
-25.468
-24.489
-23.493
-22.488
-21.482
-20.48
-19.487
-18.507
-17.548
-16.614
-15.71
-14.842
-14.013
-13.227
-12.487
-11.796
-11.154
-10.562
-10.02
-9.525
-9.077
-8.673
-8.311
-7.987
-7.697
-7.437
-7.203
-6.99
-6.793
-6.609
-6.432
-6.259
-6.086
-5.908
-5.722
-5.526
-5.316
-5.09
-4.846
-4.581
-4.295
-3.986
-3.652
-3.293
-2.908
-2.497
-2.058
-1.592
-1.099
-0.579
-0.034
0.535
1.128
1.742
2.376
3.026
3.69
4.366
5.05
5.739
6.431
7.121
7.809
8.49
9.163
9.825
10.473
11.106
11.722
12.318
12.894
13.449
13.98
14.488
14.973
15.433
15.869
16.282
16.67
17.036
17.379
17.699
17.997
18.275
18.532
18.771
18.993
19.198
19.39
19.57
19.74
19.902
20.059
20.212
20.363
20.514
20.667
20.825
20.988
21.16
21.341
21.534
21.74
21.961
22.197
22.451
22.721
23.01
23.317
23.644
23.989
24.354
24.74
25.145
25.572
26.019
26.488
26.977
27.486
28.016
28.565
29.134
29.722
30.327
30.95
31.59
32.246
32.917
33.602
34.3
35.01
35.729
36.457
37.193
37.934
38.68
39.429
40.18
40.931
41.682
42.431
43.176
43.916
44.651
45.377
46.095
46.803
47.499
48.184
48.856
49.515
50.158
50.786
51.398
51.992
52.567
53.123
53.66
54.177
54.674
55.152
55.611
56.051
56.474
56.88
57.269
57.642
58.001
58.346
58.677
58.996
59.305
59.606
59.899
60.186
60.468
60.746
61.022
61.294
61.562
61.825
62.083
62.335
62.58
62.819
63.052
63.277
63.497
63.712
63.922
64.125
64.319
64.498
64.659
64.798
64.908
64.984
65.023
65.02
64.974
64.887
64.758
64.584
64.359
64.075
63.727
63.314
62.833
62.287
61.682
61.03
60.354
59.679
59.018
58.384
57.779
57.196
56.629
56.074
55.519
54.965
54.412
53.856
53.305
52.763
52.216
51.637
50.981
50.189
49.225
48.064
46.689
45.107
43.332
41.394
39.348
37.239
35.099
32.96
30.839
28.751
26.743
24.879
23.245
21.949
21.084
20.722
20.936
21.776
23.25
25.341
27.983
31.103
34.654
38.582
42.837
47.372
52.107
56.938
61.753
66.407
70.743
74.619
77.885
80.404
82.094
82.911
82.851
81.94
80.19
77.622
74.283
70.221
65.502
60.213
54.439
48.297
41.943
35.528
29.213
23.159
17.474
12.237
7.504
3.287
-0.41
-3.608
-6.36
-8.722
-10.751
-12.531
-14.143
-15.698
-17.333
-19.162
-21.34
-24.04
-27.344
-31.271
-35.707
-40.375
-45.026
-49.433
-53.273
-56.249
-58.146
-58.84
-58.63
-58.18
-58.045
-58.744
-60.734
-64.138
-69.054
-75.714
-83.317
-90.158
-94.87
-94.479
-86.086
-69.627
-43.509
-8.618
30.385
73.68
120.961
172.851
236.878
315.492
403.238
491.467
562.116
593.932
578.63
514.476
407.619
278.928
145.026
21.638
-73.469
-135.78
-164.279
-163.367
-145.957
-122.046
-101.737
-91.206
-91.678
-101.771
-114.737
-125.508
-130.513
-129.214
-126.51
-125.313
-126.86
-130.577
-133.306
-133.645
-131.713
-127.986
-123.555
-119.036
-114.623
-110.784
-107.867
-105.997
-105.203
-105.323
-106.209
-107.773
-109.895
-112.43
-115.217
-118.112
-121.007
-123.792
-126.342
-128.555
-130.356
-131.696
-132.57
-132.974
-132.91
-132.406
-131.5
-130.235
-128.659
-126.812
-124.73
-122.468
-120.082
-117.634
-115.188
-112.789
-110.469
-108.252
-106.151
-104.175
-102.327
-100.6
-98.98
-97.462
-96.038
-94.706
-93.465
-92.307
-91.223
-90.204
-89.241
-88.326
-87.453
-86.613
-85.801
-85.013
-84.243
-83.489
-82.748
-82.016
-81.285
-80.549
-79.8
-79.028
-78.227
-77.386
-76.498
-75.553
-74.545
-73.465
-72.308
-71.067
-69.735
-68.306
-66.774
-65.135
-63.382
-61.512
-59.518
-57.398
-55.149
-52.767
-50.251
-47.6
-44.812
-41.889
-38.83
-35.636
-32.311
-28.855
-25.274
-21.569
-17.748
-13.815
-9.778
-5.644
-1.423
2.878
7.246
11.671
16.142
20.646
25.17
29.7
34.224
38.725
43.189
47.599
51.939
56.193
60.343
64.371
68.26
71.994
75.555
78.926
82.091
85.035
87.741
90.195
92.383
94.291
95.908
97.221
98.222
98.902
99.253
99.27
98.949
98.287
97.284
95.941
94.259
92.242
89.897
87.229
84.248
80.965
77.391
73.54
69.427
65.069
60.485
55.692
50.712
45.564
40.27
34.853
29.335
23.739
18.088
12.405
6.713
1.035
-4.607
-10.19
-15.694
-21.098
-26.385
-31.535
-36.532
-41.361
-46.007
-50.457
-54.7
-58.726
-62.525
-66.091
-69.418
-72.501
-75.338
-77.928
-80.273
-82.373
-84.232
-85.856
-87.249
-88.419
-89.374
-90.123
-90.675
-91.04
-91.23
-91.257
-91.132
-90.868
-90.477
-89.972
-89.364
-88.665
-87.888
-87.042
-86.139
-85.189
-84.202
-83.187
-82.153
-81.109
-80.062
-79.019
-77.988
-76.973
-75.98
-75.013
-74.075
-73.169
-72.298
-71.464
-70.667
-69.909
-69.189
-68.509
-67.866
-67.26
-66.689
-66.151
-65.645
-65.168
-64.718
-64.293
-63.892
-63.511
-63.15
-62.807
-62.481
-62.169
-61.871
-61.584
-61.309
-61.043
-60.785
-60.534
-60.29
-60.052
-59.819
-59.591
-59.367
-59.148
-58.933
-58.722
-58.514
-58.31
-58.109
-57.911
-57.718
-57.529
-57.345
-57.167
-56.994
-56.829
-56.67
-56.518
-56.373
-56.236
-56.105
-55.982
-55.865
-55.755
-55.652
-55.556
-55.467
-55.384
-55.308
-55.239
-55.176
-55.12
-55.07
-55.026
-54.988
-54.957
-54.931
-54.912
-54.9
-54.894
-54.895
-54.901
-54.914
-54.931
-54.953
-54.978
-55.007
-55.039
-55.072
-55.107
-55.143
-55.18
-55.217
-55.254
-55.289
-55.322
-55.352
-55.377
-55.398
-55.412
-55.42
-55.42
-55.412
-55.396
-55.371
-55.336
-55.291
-55.234
-55.166
-55.087
-54.994
-54.89
-54.775
-54.648
-54.511
-54.364
-54.21
-54.049
-53.883
-53.711
-53.536
-53.358
-53.178
-52.998
-52.819
-52.643
-52.472
-52.308
-52.153
-52.008
-51.877
-51.759
-51.657
-51.571
-51.503
-51.451
-51.419
-51.405
-51.412
-51.438
-51.485
-51.553
-51.639
-51.745
-51.867
-52.004
-52.154
-52.315
-52.484
-52.66
-52.84
-53.023
-53.207
-53.392
-53.576
-53.758
-53.935
-54.105
-54.265
-54.41
-54.537
-54.643
-54.723
-54.775
-54.798
-54.791
-54.754
-54.691
-54.601
-54.486
-54.345
-54.178
-53.986
-53.768
-53.522
-53.247
-52.946
-52.621
-52.284
-51.94
-51.589
-51.227
-50.847
-50.434
-49.978
-49.467
-48.884
-48.217
-47.464
-46.629
-45.73
-44.788
-43.813
-42.808
-41.765
-40.676
-39.549
-38.394
-37.223
-36.065
-34.941
-33.878
-32.922
-32.104
-31.43
-30.888
-30.434
-30.009
-29.579
-29.118
-28.612
-28.055
-27.424
-26.697
-25.859
-24.884
-23.741
-22.396
-20.783
-18.858
-16.614
-14.066
-11.271
-8.308
-5.232
-2.09
1.073
4.225
7.324
10.33
13.221
15.966
18.528
20.861
22.897
24.579
25.882
26.8
27.344
27.551
27.444
27.045
26.383
25.478
24.355
23.044
21.573
19.965
18.255
16.482
14.686
12.911
11.19
9.556
8.045
6.679
5.48
4.461
3.627
2.978
2.496
2.14
1.843
1.548
1.21
0.79
0.248
-0.47
-1.431
-2.707
-4.363
-6.475
-9.151
-12.427
-16.237
-20.405
-24.591
-28.401
-31.504
-33.541
-34.073
-32.859
-29.976
-25.795
-21.1
-16.744
-13.229
-10.975
-10.542
-12.162
-15.393
-19.119
-21.397
-19.868
-12.725
1.496
24.794
59.021
104.921
162.224
228.078
297.197
365.205
429.083
488.54
545.358
599.001
644.491
670.011
662.132
612.201
520.314
400.926
275.897
167.195
90.788
49.305
35.303
35.238
37.362
36.819
33.744
32.821
36.538
43.131
49.887
53.153
51.169
44.829
35.63
25.168
15.02
6.429
0.064
-3.74
-5.024
-4.265
-2.012
1.238
4.846
8.16
10.822
12.644
13.592
13.816
13.409
12.432
11.009
9.263
7.291
5.188
3.007
0.777
-1.43
-3.526
-5.418
-7.007
-8.234
-9.079
-9.525
-9.577
-9.249
-8.557
-7.534
-6.225
-4.671
-2.913
-0.991
1.059
3.193
5.363
7.516
9.601
11.582
13.436
15.146
16.703
18.101
19.339
20.419
21.353
22.146
22.805
23.334
23.734
24.012
24.177
24.239
24.207
24.092
23.901
23.642
23.326
22.96
22.553
22.113
21.647
21.164
20.675
20.191
19.725
19.29
18.896
18.557
18.285
18.091
17.988
17.985
18.091
18.316
18.668
19.154
19.781
20.556
21.484
22.569
23.816
25.227
26.804
28.548
30.459
32.536
34.777
37.18
39.739
42.451
45.308
48.305
51.433
54.683
58.045
61.507
65.059
68.686
72.375
76.11
79.877
83.66
87.441
91.205
94.934
98.612
102.221
105.743
109.163
112.462
115.624
118.631
121.467
124.117
126.564
128.795
130.795
132.552
134.053
135.289
136.249
136.925
137.309
137.395
137.179
136.656
135.826
134.688
133.244
131.496
129.45
127.111
124.486
121.586
118.419
114.997
111.333
107.44
103.332
99.027
94.539
89.886
85.086
80.159
75.122
69.995
64.798
59.55
54.27
48.977
43.69
38.427
33.206
28.043
22.957
17.963
13.076
8.311
3.681
-0.803
-5.129
-9.287
-13.27
-17.069
-20.679
-24.095
-27.312
-30.329
-33.142
-35.752
-38.159
-40.364
-42.369
-44.179
-45.797
-47.228
-48.479
-49.555
-50.464
-51.213
-51.809
-52.259
-52.572
-52.756
-52.82
-52.771
-52.618
-52.371
-52.037
-51.625
-51.143
-50.599
-50.001
-49.355
-48.667
-47.945
-47.195
-46.421
-45.629
-44.826
-44.014
-43.199
-42.385
-41.575
-40.772
-39.979
-39.199
-38.432
-37.681
-36.947
-36.232
-35.536
-34.861
-34.208
-33.578
-32.972
-32.39
-31.833
-31.3
-30.792
-30.309
-29.849
-29.414
-29.003
-28.615
-28.251
-27.91
-27.593
-27.3
-27.029
-26.78
-26.553
-26.348
-26.162
-25.997
-25.851
-25.723
-25.615
-25.525
-25.453
-25.399
-25.362
-25.342
-25.338
-25.348
-25.373
-25.41
-25.459
-25.519
-25.588
-25.667
-25.754
-25.849
-25.952
-26.062
-26.177
-26.298
-26.425
-26.555
-26.69
-26.828
-26.969
-27.113
-27.261
-27.412
-27.566
-27.722
-27.882
-28.043
-28.206
-28.371
-28.537
-28.703
-28.869
-29.036
-29.203
-29.37
-29.539
-29.708
-29.879
-30.052
-30.226
-30.402
-30.58
-30.759
-30.939
-31.119
-31.301
-31.483
-31.664
-31.845
-32.024
-32.201
-32.376
-32.548
-32.715
-32.878
-33.036
-33.189
-33.336
-33.478
-33.614
-33.746
-33.873
-33.996
-34.114
-34.229
-34.341
-34.449
-34.553
-34.654
-34.751
-34.845
-34.936
-35.024
-35.109
-35.191
-35.271
-35.349
-35.426
-35.502
-35.578
-35.655
-35.734
-35.814
-35.898
-35.986
-36.078
-36.174
-36.276
-36.384
-36.497
-36.614
-36.736
-36.862
-36.992
-37.123
-37.255
-37.388
-37.52
-37.651
-37.779
-37.904
-38.026
-38.144
-38.258
-38.367
-38.471
-38.571
-38.665
-38.754
-38.837
-38.914
-38.985
-39.05
-39.109
-39.162
-39.209
-39.249
-39.284
-39.314
-39.338
-39.359
-39.376
-39.39
-39.405
-39.42
-39.439
-39.463
-39.495
-39.539
-39.596
-39.67
-39.763
-39.877
-40.014
-40.177
-40.367
-40.585
-40.832
-41.11
-41.42
-41.762
-42.138
-42.547
-42.99
-43.468
-43.98
-44.526
-45.106
-45.719
-46.365
-47.041
-47.749
-48.486
-49.251
-50.041
-50.855
-51.69
-52.54
-53.401
-54.268
-55.133
-55.991
-56.835
-57.658
-58.456
-59.22
-59.947
-60.633
-61.274
-61.865
-62.401
-62.877
-63.286
-63.622
-63.879
-64.05
-64.127
-64.104
-63.974
-63.735
-63.383
-62.914
-62.323
-61.599
-60.738
-59.739
-58.604
-57.338
-55.949
-54.448
-52.852
-51.189
-49.484
-47.763
-46.048
-44.35
-42.674
-41.03
-39.427
-37.877
-36.381
-34.926
-33.495
-32.073
-30.641
-29.183
-27.672
-26.053
-24.282
-22.328
-20.167
-17.808
-15.27
-12.57
-9.735
-6.8
-3.818
-0.868
1.957
4.582
6.936
8.951
10.557
11.647
12.133
11.954
11.078
9.518
7.306
4.473
1.063
-2.853
-7.187
-11.813
-16.585
-21.389
-26.117
-30.677
-34.98
-38.903
-42.345
-45.249
-47.606
-49.469
-50.907
-51.978
-52.734
-53.239
-53.578
-53.879
-54.277
-54.881
-55.778
-57
-58.619
-60.779
-63.488
-66.644
-69.968
-72.917
-74.99
-75.809
-74.874
-71.718
-66.247
-58.503
-49.043
-39.077
-29.622
-21.67
-16.345
-14.169
-14.828
-17.67
-21.03
-22.021
-17.896
-5.378
19.397
57.144
105.492
162.616
225.092
293.685
375.6
469.842
569.842
660.89
715.871
719.435
668.031
566.983
438.473
301.885
172.307
67.051
-6.154
-45.026
-51.963
-40.515
-24.69
-12.202
-6.504
-4.102
0.418
7.148
14.277
19.406
19.699
15.37
8.232
-0.382
-8.709
-15.3
-19.754
-21.901
-21.877
-20.282
-17.693
-14.587
-11.546
-9.098
-7.488
-6.798
-6.982
-7.85
-9.256
-11.084
-13.19
-15.433
-17.705
-19.931
-22.044
-23.997
-25.721
-27.129
-28.162
-28.79
-29.002
-28.807
-28.221
-27.265
-25.97
-24.379
-22.532
-20.468
-18.227
-15.842
-13.355
-10.814
-8.264
-5.753
-3.32
-0.987
1.227
3.313
5.268
7.091
8.786
10.363
11.83
13.19
14.448
15.607
16.674
17.656
18.563
19.405
20.189
20.925
21.621
22.283
22.917
23.531
24.128
24.713
25.291
25.868
26.452
27.049
27.669
28.319
29.006
29.739
30.526
31.374
32.29
33.281
34.352
35.51
36.762
38.112
39.566
41.129
42.805
44.599
46.514
48.552
50.716
53.006
55.423
57.966
60.636
63.43
66.346
69.383
72.538
75.806
79.183
82.666
86.248
89.923
93.683
97.522
101.428
105.394
109.408
113.458
117.532
121.618
125.702
129.768
133.802
137.787
141.707
145.545
149.282
152.903
156.389
159.722
162.887
165.865
168.641
171.199
173.524
175.602
177.418
178.962
180.219
181.181
181.836
182.176
182.195
181.885
181.242
180.263
178.946
177.292
175.302
172.979
170.329
167.359
164.077
160.494
156.622
152.475
148.069
143.419
138.545
133.465
128.199
122.77
117.198
111.506
105.716
99.85
93.933
87.985
82.03
76.09
70.187
64.341
58.574
52.906
47.355
41.941
36.681
31.591
26.686
21.98
17.486
13.214
9.174
5.373
1.819
-1.484
-4.533
-7.327
-9.866
-12.151
-14.185
-15.974
-17.523
-18.839
-19.931
-20.807
-21.478
-21.954
-22.247
-22.367
-22.327
-22.139
-21.816
-21.371
-20.816
-20.165
-19.43
-18.624
-17.76
-16.849
-15.903
-14.934
-13.953
-12.968
-11.99
-11.028
-10.089
-9.181
-8.311
-7.484
-6.706
-5.981
-5.312
-4.702
-4.152
-3.664
-3.237
-2.873
-2.57
-2.328
-2.145
-2.019
-1.95
-1.933
-1.968
-2.051
-2.18
-2.352
-2.563
-2.812
-3.094
-3.408
-3.751
-4.119
-4.512
-4.926
-5.36
-5.813
-6.281
-6.763
-7.259
-7.766
-8.284
-8.811
-9.347
-9.891
-10.443
-11.002
-11.568
-12.142
-12.722
-13.309
-13.902
-14.501
-15.107
-15.718
-16.334
-16.956
-17.582
-18.213
-18.847
-19.484
-20.122
-20.762
-21.401
-22.039
-22.673
-23.303
-23.926
-24.541
-25.146
-25.739
-26.32
-26.887
-27.439
-27.975
-28.493
-28.993
-29.474
-29.935
-30.377
-30.799
-31.201
-31.583
-31.946
-32.29
-32.617
-32.928
-33.224
-33.506
-33.776
-34.037
-34.289
-34.535
-34.777
-35.018
-35.261
-35.508
-35.762
-36.027
-36.305
-36.599
-36.912
-37.247
-37.607
-37.993
-38.408
-38.853
-39.33
-39.84
-40.385
-40.965
-41.581
-42.233
-42.921
-43.645
-44.405
-45.198
-46.024
-46.882
-47.77
-48.686
-49.628
-50.593
-51.579
-52.584
-53.605
-54.639
-55.682
-56.732
-57.783
-58.834
-59.88
-60.917
-61.941
-62.95
-63.939
-64.905
-65.846
-66.758
-67.639
-68.485
-69.296
-70.067
-70.799
-71.487
-72.132
-72.731
-73.283
-73.788
-74.245
-74.655
-75.015
-75.328
-75.592
-75.809
-75.979
-76.103
-76.182
-76.218
-76.211
-76.166
-76.083
-75.966
-75.817
-75.64
-75.437
-75.212
-74.969
-74.711
-74.44
-74.162
-73.879
-73.595
-73.314
-73.039
-72.774
-72.522
-72.286
-72.07
-71.876
-71.707
-71.565
-71.452
-71.37
-71.321
-71.305
-71.325
-71.379
-71.468
-71.593
-71.751
-71.941
-72.162
-72.41
-72.682
-72.974
-73.282
-73.602
-73.928
-74.254
-74.575
-74.884
-75.173
-75.436
-75.666
-75.855
-75.995
-76.078
-76.098
-76.046
-75.917
-75.702
-75.396
-74.994
-74.489
-73.878
-73.156
-72.32
-71.367
-70.297
-69.11
-67.805
-66.384
-64.852
-63.212
-61.472
-59.639
-57.72
-55.727
-53.67
-51.561
-49.411
-47.235
-45.043
-42.85
-40.671
-38.521
-36.416
-34.374
-32.412
-30.545
-28.789
-27.158
-25.666
-24.323
-23.137
-22.117
-21.271
-20.617
-20.168
-19.935
-19.926
-20.143
-20.588
-21.255
-22.132
-23.198
-24.43
-25.805
-27.303
-28.911
-30.615
-32.396
-34.225
-36.058
-37.857
-39.585
-41.213
-42.715
-44.072
-45.283
-46.372
-47.39
-48.384
-49.383
-50.413
-51.501
-52.69
-54.04
-55.615
-57.467
-59.674
-62.349
-65.542
-69.21
-73.181
-77.115
-80.652
-83.517
-85.425
-86.007
-85.053
-82.646
-79.21
-75.629
-72.784
-71.127
-70.957
-72.678
-76.472
-81.997
-88.213
-93.047
-94.201
-90.187
-79.619
-60.766
-31.975
8.3
59.26
116.745
176.74
236.047
295.49
360.129
429.423
497.439
551.998
575.275
558.686
502.929
413.918
303.484
181.665
56.725
-58.025
-146.865
-197.98
-205.739
-177.21
-129.484
-79.409
-41.329
-20.054
-12.62
-15.154
-21.456
-30.184
-44.352
-62.316
-81.424
-96.617
-98.903
-88.151
-71.071
-53.822
-44.743
-45.374
-49.862
-54.837
-57.498
-57.192
-56.803
-57.417
-58.773
-60.813
-62.974
-65.043
-67.313
-69.791
-72.29
-74.719
-77.013
-79.08
-80.851
-82.255
-83.205
-83.686
-83.742
-83.414
-82.738
-81.749
-80.482
-78.967
-77.243
-75.351
-73.336
-71.246
-69.138
-67.051
-65.016
-63.059
-61.196
-59.435
-57.78
-56.226
-54.761
-53.379
-52.075
-50.847
-49.695
-48.613
-47.594
-46.632
-45.718
-44.844
-44.005
-43.195
-42.406
-41.633
-40.872
-40.118
-39.369
-38.619
-37.862
-37.09
-36.296
-35.47
-34.606
-33.696
-32.729
-31.699
-30.597
-29.416
-28.149
-26.79
-25.331
-23.766
-22.09
-20.296
-18.38
-16.338
-14.164
-11.857
-9.411
-6.826
-4.099
-1.229
1.785
4.942
8.242
11.682
15.26
18.972
22.814
26.78
30.864
35.059
39.357
43.749
48.226
52.776
57.388
62.05
66.75
71.473
76.205
80.933
85.639
90.31
94.929
99.48
103.946
108.311
112.557
116.667
120.626
124.415
128.019
131.42
134.605
137.557
140.262
142.706
144.878
146.765
148.357
149.645
150.62
151.276
151.607
151.61
151.282
150.622
149.632
148.314
146.671
144.709
142.435
139.858
136.986
133.832
130.407
126.725
122.801
118.651
114.29
109.737
105.01
100.129
95.112
89.979
84.752
79.449
74.093
68.702
63.298
57.9
52.528
47.201
41.937
36.755
31.671
26.7
21.858
17.159
12.614
8.236
4.034
0.018
-3.805
-7.427
-10.843
-14.049
-17.041
-19.817
-22.376
-24.718
-26.843
-28.754
-30.453
-31.943
-33.228
-34.314
-35.206
-35.909
-36.431
-36.779
-36.96
-36.982
-36.855
-36.586
-36.184
-35.658
-35.017
-34.269
-33.424
-32.489
-31.473
-30.384
-29.23
-28.017
-26.755
-25.449
-24.107
-22.736
-21.342
-19.931
-18.51
-17.085
-15.661
-14.244
-12.839
-11.452
-10.088
-8.751
-7.446
-6.178
-4.951
-3.768
-2.632
-1.547
-0.516
0.46
1.379
2.238
3.035
3.769
4.439
5.043
5.58
6.05
6.451
6.782
7.044
7.237
7.361
7.417
7.404
7.326
7.182
6.975
6.707
6.381
5.999
5.565
5.081
4.552
3.982
3.373
2.73
2.057
1.356
0.631
-0.114
-0.877
-1.654
-2.441
-3.237
-4.037
-4.839
-5.64
-6.436
-7.224
-8.003
-8.768
-9.518
-10.249
-10.961
-11.65
-12.315
-12.955
-13.567
-14.151
-14.707
-15.234
-15.732
-16.202
-16.644
-17.059
-17.448
-17.812
-18.151
-18.465
-18.756
-19.025
-19.27
-19.494
-19.696
-19.877
-20.037
-20.178
-20.299
-20.402
-20.488
-20.557
-20.611
-20.651
-20.678
-20.693
-20.699
-20.696
-20.687
-20.672
-20.654
-20.633
-20.61
-20.586
-20.563
-20.54
-20.519
-20.501
-20.485
-20.474
-20.468
-20.469
-20.478
-20.496
-20.524
-20.564
-20.618
-20.687
-20.772
-20.874
-20.994
-21.135
-21.295
-21.476
-21.679
-21.902
-22.147
-22.412
-22.696
-22.999
-23.319
-23.656
-24.008
-24.374
-24.753
-25.143
-25.544
-25.954
-26.37
-26.793
-27.22
-27.649
-28.079
-28.508
-28.933
-29.354
-29.768
-30.173
-30.568
-30.952
-31.322
-31.678
-32.018
-32.341
-32.648
-32.937
-33.21
-33.466
-33.707
-33.933
-34.147
-34.35
-34.543
-34.728
-34.909
-35.086
-35.262
-35.44
-35.621
-35.807
-36.003
-36.208
-36.427
-36.66
-36.911
-37.18
-37.469
-37.781
-38.115
-38.472
-38.854
-39.259
-39.689
-40.141
-40.614
-41.108
-41.618
-42.142
-42.676
-43.216
-43.757
-44.294
-44.82
-45.331
-45.819
-46.277
-46.7
-47.08
-47.41
-47.683
-47.891
-48.026
-48.082
-48.051
-47.927
-47.702
-47.372
-46.929
-46.369
-45.687
-44.879
-43.942
-42.873
-41.671
-40.334
-38.864
-37.261
-35.529
-33.672
-31.695
-29.606
-27.414
-25.127
-22.758
-20.318
-17.82
-15.279
-12.707
-10.12
-7.53
-4.953
-2.404
0.102
2.547
4.917
7.194
9.361
11.402
13.301
15.044
16.623
18.026
19.245
20.269
21.084
21.678
22.043
22.171
22.058
21.701
21.105
20.285
19.271
18.091
16.777
15.358
13.853
12.29
10.698
9.108
7.561
6.092
4.729
3.502
2.438
1.554
0.851
0.291
-0.2
-0.698
-1.272
-1.97
-2.835
-3.933
-5.34
-7.131
-9.383
-12.135
-15.439
-19.416
-24.109
-29.441
-35.209
-40.978
-46.248
-50.633
-53.674
-54.806
-53.749
-50.528
-45.517
-39.732
-34.229
-29.753
-27.204
-27.468
-30.761
-36.531
-43.423
-48.949
-50.291
-44.887
-29.747
-1.627
40.361
94.306
157.843
227.247
302.595
388.614
483.595
580.524
664.124
712.129
714.375
671.561
593.782
498.42
393.804
284.186
175.539
75.58
-2.466
-49.018
-65.275
-61.764
-51.848
-44.358
-40.928
-37.211
-30.271
-21.086
-12.253
-7.301
-7.552
-11.829
-18.556
-26.084
-32.965
-38.15
-41.064
-41.569
-39.967
-36.915
-33.068
-28.952
-25.119
-22.078
-20.083
-19.225
-19.438
-20.507
-22.261
-24.565
-27.256
-30.179
-33.213
-36.236
-39.146
-41.855
-44.256
-46.264
-47.828
-48.913
-49.514
-49.64
-49.31
-48.562
-47.445
-46.004
-44.287
-42.337
-40.197
-37.92
-35.563
-33.185
-30.843
-28.582
-26.433
-24.42
-22.557
-20.849
-19.299
-17.9
-16.639
-15.51
-14.506
-13.623
-12.859
-12.205
-11.652
-11.192
-10.815
-10.51
-10.269
-10.085
-9.947
-9.849
-9.784
-9.745
-9.725
-9.716
-9.708
-9.69
-9.651
-9.58
-9.464
-9.293
-9.054
-8.737
-8.331
-7.828
-7.218
-6.494
-5.647
-4.669
-3.555
-2.299
-0.894
0.664
2.378
4.252
6.289
8.49
10.855
13.385
16.078
18.932
21.945
25.112
28.428
31.888
35.485
39.21
43.056
47.011
51.066
55.209
59.427
63.707
68.034
72.396
76.776
81.16
85.531
89.874
94.171
98.407
102.564
106.624
110.572
114.389
118.057
121.561
124.883
128.007
130.918
133.599
136.037
138.218
140.128
141.756
143.09
144.121
144.841
145.241
145.318
145.065
144.481
143.565
142.316
140.737
138.831
136.604
134.061
131.211
128.063
124.628
120.919
116.948
112.731
108.284
103.623
98.767
93.735
88.545
83.217
77.773
72.233
66.617
60.948
55.246
49.533
43.829
38.155
32.531
26.975
21.507
16.145
10.905
5.802
0.852
-3.933
-8.541
-12.959
-17.18
-21.194
-24.996
-28.578
-31.938
-35.072
-37.98
-40.659
-43.113
-45.341
-47.348
-49.137
-50.714
-52.083
-53.252
-54.228
-55.017
-55.629
-56.072
-56.356
-56.489
-56.481
-56.343
-56.084
-55.714
-55.243
-54.681
-54.037
-53.321
-52.542
-51.707
-50.826
-49.907
-48.955
-47.979
-46.985
-45.979
-44.967
-43.953
-42.943
-41.941
-40.95
-39.976
-39.021
-38.089
-37.183
-36.305
-35.458
-34.645
-33.868
-33.13
-32.432
-31.776
-31.165
-30.599
-30.081
-29.611
-29.192
-28.824
-28.508
-28.246
-28.038
-27.885
-27.789
-27.751
-27.77
-27.848
-27.985
-28.182
-28.438
-28.753
-29.127
-29.559
-30.047
-30.592
-31.191
-31.843
-32.545
-33.296
-34.092
-34.931
-35.809
-36.723
-37.669
-38.643
-39.642
-40.66
-41.695
-42.741
-43.794
-44.851
-45.907
-46.957
-47.997
-49.022
-50.028
-51.012
-51.968
-52.893
-53.782
-54.634
-55.445
-56.211
-56.932
-57.604
-58.227
-58.798
-59.317
-59.783
-60.196
-60.556
-60.863
-61.118
-61.323
-61.478
-61.584
-61.645
-61.661
-61.635
-61.568
-61.463
-61.322
-61.146
-60.939
-60.704
-60.442
-60.156
-59.85
-59.527
-59.188
-58.838
-58.478
-58.111
-57.74
-57.366
-56.991
-56.618
-56.248
-55.882
-55.522
-55.169
-54.823
-54.485
-54.157
-53.838
-53.528
-53.228
-52.938
-52.658
-52.389
-52.131
-51.884
-51.648
-51.425
-51.213
-51.014
-50.827
-50.653
-50.491
-50.341
-50.203
-50.076
-49.961
-49.855
-49.76
-49.674
-49.597
-49.528
-49.467
-49.412
-49.364
-49.322
-49.285
-49.253
-49.226
-49.204
-49.186
-49.173
-49.163
-49.156
-49.152
-49.15
-49.149
-49.147
-49.145
-49.14
-49.133
-49.121
-49.104
-49.082
-49.053
-49.016
-48.971
-48.917
-48.854
-48.781
-48.698
-48.607
-48.508
-48.4
-48.287
-48.168
-48.045
-47.919
-47.79
-47.66
-47.53
-47.4
-47.271
-47.145
-47.023
-46.905
-46.794
-46.691
-46.598
-46.517
-46.449
-46.396
-46.359
-46.34
-46.341
-46.363
-46.407
-46.474
-46.567
-46.686
-46.831
-47.002
-47.199
-47.42
-47.663
-47.926
-48.203
-48.491
-48.786
-49.085
-49.382
-49.676
-49.962
-50.237
-50.499
-50.744
-50.971
-51.172
-51.343
-51.477
-51.567
-51.606
-51.586
-51.5
-51.337
-51.092
-50.76
-50.337
-49.818
-49.194
-48.454
-47.591
-46.605
-45.498
-44.273
-42.939
-41.502
-39.981
-38.403
-36.796
-35.185
-33.586
-31.999
-30.431
-28.886
-27.371
-25.894
-24.45
-23.018
-21.586
-20.146
-18.685
-17.196
-15.647
-13.986
-12.17
-10.168
-7.969
-5.589
-3.047
-0.355
2.451
5.325
8.2
10.981
13.594
15.991
18.119
19.934
21.377
22.362
22.825
22.728
22.05
20.799
18.988
16.635
13.791
10.548
7.021
3.35
-0.349
-4.001
-7.537
-10.901
-14.048
-16.938
-19.548
-21.876
-23.912
-25.652
-27.12
-28.356
-29.436
-30.47
-31.568
-32.876
-34.577
-36.754
-39.356
-42.204
-44.954
-47.256
-48.883
-49.555
-48.844
-46.501
-42.617
-37.655
-32.493
-27.97
-24.466
-22.265
-21.975
-24.008
-28.017
-32.785
-36.253
-36.166
-30.794
-18.569
2.898
36.293
81.815
136.842
198.137
261.676
327.897
402.326
484.509
568.798
642.978
687.031
689.301
648.584
570.002
466.212
349.863
230.946
122.268
38.399
-12.114
-27.886
-17.759
0.516
14.747
20.143
18.437
16.895
18.076
20.445
21.714
18.696
11.1
0.892
-10.356
-20.93
-29.46
-35.564
-39.096
-40.142
-39.26
-37.068
-34.064
-30.813
-27.838
-25.356
-23.46
-22.152
-21.277
-20.735
-20.473
-20.391
-20.422
-20.538
-20.708
-20.923
-21.182
-21.427
-21.614
-21.709
-21.686
-21.584
-21.444
-21.285
-21.134
-21.012
-20.918
-20.86
-20.821
-20.752
-20.621
-20.412
-20.116
-19.756
-19.341
-18.866
-18.326
-17.685
-16.912
-15.994
-14.912
-13.651
-12.217
-10.619
-8.887
-7.085
-5.26
-3.441
-1.652
0.104
1.819
3.478
5.071
6.586
8.015
9.353
10.595
11.734
12.774
13.726
14.611
15.467
16.323
17.198
18.109
19.065
20.078
21.158
22.312
23.541
24.85
26.242
27.723
29.302
30.984
32.769
34.657
36.643
38.728
40.909
43.186
45.56
48.03
50.597
53.262
56.029
58.898
61.868
64.939
68.107
71.369
74.722
78.162
81.683
85.28
88.948
92.68
96.47
100.309
104.189
108.101
112.033
115.976
119.917
123.846
127.751
131.621
135.445
139.212
142.91
146.528
150.053
153.472
156.77
159.931
162.938
165.777
168.431
170.888
173.134
175.155
176.941
178.481
179.766
180.784
181.523
181.968
182.104
181.926
181.435
180.633
179.533
178.144
176.477
174.551
172.38
169.971
167.327
164.435
161.284
157.874
154.214
150.321
146.216
141.905
137.392
132.679
127.755
122.616
117.252
111.635
105.754
99.625
93.278
86.775
80.194
73.588
67.002
60.472
54.024
47.7
41.543
35.589
29.886
24.483
19.436
14.827
10.718
7.133
4.072
1.495
-0.663
-2.443
-3.879
-5.004
-5.839
-6.413
-6.759
-6.891
-6.833
-6.619
-6.293
-5.925
-5.574
-5.268
-5.019
-4.812
-4.611
-4.399
-4.164
-3.891
-3.575
-3.215
-2.811
-2.38
-1.937
-1.489
-1.036
-0.562
-0.054
0.487
1.051
1.623
2.174
2.686
3.144
3.527
3.823
4.023
4.123
4.128
4.047
3.884
3.641
3.318
2.913
2.428
1.869
1.24
0.549
-0.197
-0.988
-1.816
-2.671
-3.546
-4.436
-5.335
-6.243
-7.154
-8.066
-8.975
-9.877
-10.766
-11.641
-12.495
-13.324
-14.125
-14.894
-15.63
-16.331
-16.996
-17.623
-18.213
-18.763
-19.275
-19.748
-20.183
-20.579
-20.938
-21.261
-21.549
-21.804
-22.029
-22.225
-22.394
-22.538
-22.661
-22.762
-22.846
-22.912
-22.964
-23.003
-23.032
-23.052
-23.067
-23.079
-23.091
-23.104
-23.123
-23.148
-23.182
-23.228
-23.288
-23.363
-23.457
-23.57
-23.706
-23.867
-24.053
-24.268
-24.512
-24.787
-25.094
-25.434
-25.807
-26.216
-26.659
-27.139
-27.655
-28.21
-28.803
-29.435
-30.106
-30.816
-31.565
-32.352
-33.176
-34.038
-34.935
-35.867
-36.833
-37.83
-38.859
-39.916
-41.001
-42.11
-43.242
-44.393
-45.562
-46.745
-47.941
-49.145
-50.357
-51.573
-52.792
-54.01
-55.225
-56.434
-57.636
-58.827
-60.004
-61.164
-62.306
-63.425
-64.52
-65.588
-66.628
-67.636
-68.612
-69.553
-70.457
-71.324
-72.15
-72.936
-73.679
-74.38
-75.037
-75.65
-76.22
-76.746
-77.229
-77.67
-78.068
-78.426
-78.743
-79.021
-79.26
-79.463
-79.63
-79.762
-79.862
-79.931
-79.971
-79.985
-79.975
-79.943
-79.893
-79.826
-79.745
-79.654
-79.554
-79.45
-79.342
-79.235
-79.13
-79.031
-78.941
-78.86
-78.791
-78.736
-78.697
-78.674
-78.667
-78.677
-78.703
-78.745
-78.802
-78.872
-78.954
-79.045
-79.143
-79.246
-79.354
-79.464
-79.572
-79.676
-79.773
-79.86
-79.933
-79.984
-80.007
-79.994
-79.938
-79.834
-79.676
-79.458
-79.173
-78.816
-78.384
-77.874
-77.282
-76.598
-75.81
-74.91
-73.902
-72.789
-71.582
-70.29
-68.919
-67.48
-65.992
-64.464
-62.903
-61.302
-59.643
-57.919
-56.134
-54.298
-52.435
-50.558
-48.663
-46.75
-44.811
-42.838
-40.828
-38.764
-36.61
-34.36
-32.025
-29.642
-27.283
-24.998
-22.818
-20.767
-18.854
-17.092
-15.517
-14.154
-13.025
-12.168
-11.609
-11.397
-11.606
-12.272
-13.394
-14.937
-16.81
-18.93
-21.246
-23.7
-26.252
-28.865
-31.481
-34.052
-36.548
-38.913
-41.105
-43.076
-44.736
-46.031
-46.954
-47.536
-47.882
-48.123
-48.345
-48.624
-49.022
-49.582
-50.391
-51.534
-53.049
-54.965
-57.264
-59.969
-63.199
-66.995
-71.259
-75.707
-79.884
-83.399
-85.983
-87.251
-86.787
-84.409
-80.099
-74.441
-68.361
-62.304
-57.082
-53.882
-53.139
-55.027
-58.194
-58.573
-54.205
-45.137
-32.356
-19.844
-6.686
12.444
43.77
95.4
169.706
263.768
367.888
466.662
544.115
581.962
572.101
514.42
413.484
287.674
152.828
25.636
-72.47
-134.909
-160.4
-155.926
-141.832
-129.063
-121.833
-119.784
-113.772
-101.102
-84.996
-68.35
-56.01
-50.072
-49.511
-53.73
-61.639
-71.268
-80.743
-88.824
-94.808
-98.604
-100.358
-99.883
-97.173
-92.931
-88.26
-83.961
-80.442
-77.773
-75.872
-74.882
-74.925
-75.836
-77.233
-78.783
-80.286
-81.67
-82.944
-84.027
-84.81
-85.257
-85.386
-85.24
-84.852
-84.226
-83.346
-82.219
-80.871
-79.333
-77.643
-75.831
-73.927
-71.971
-70.004
-68.072
-66.207
-64.433
-62.768
-61.222
-59.8
-58.502
-57.326
-56.262
-55.305
-54.445
-53.674
-52.983
-52.362
-51.801
-51.289
-50.814
-50.367
-49.936
-49.512
-49.088
-48.655
-48.208
-47.739
-47.243
-46.714
-46.145
-45.528
-44.854
-44.117
-43.306
-42.414
-41.432
-40.353
-39.169
-37.874
-36.464
-34.932
-33.273
-31.484
-29.559
-27.495
-25.289
-22.938
-20.439
-17.792
-14.995
-12.049
-8.953
-5.709
-2.319
1.216
4.894
8.712
12.668
16.757
20.975
25.316
29.773
34.338
39.003
43.756
48.586
53.481
58.429
63.417
68.433
73.462
78.492
83.51
88.504
93.459
98.358
103.184
107.92
112.546
117.043
121.391
125.571
129.565
133.353
136.921
140.254
143.338
146.155
148.687
150.914
152.819
154.392
155.622
156.504
157.041
157.238
157.112
156.684
155.967
154.967
153.687
152.117
150.253
148.092
145.625
142.859
139.797
136.439
132.795
128.871
124.658
120.145
115.3
110.083
104.481
98.499
92.15
85.483
78.543
71.392
64.111
56.762
49.405
42.096
34.876
27.785
20.885
14.24
7.934
2.066
-3.297
-8.109
-12.337
-15.986
-19.074
-21.639
-23.753
-25.478
-26.857
-27.933
-28.729
-29.262
-29.573
-29.701
-29.696
-29.628
-29.545
-29.485
-29.483
-29.548
-29.673
-29.836
-29.988
-30.087
-30.107
-30.032
-29.859
-29.59
-29.221
-28.751
-28.179
-27.496
-26.694
-25.77
-24.718
-23.543
-22.26
-20.89
-19.466
-18.02
-16.576
-15.15
-13.755
-12.398
-11.087
-9.826
-8.613
-7.452
-6.345
-5.298
-4.317
-3.408
-2.569
-1.801
-1.101
-0.465
0.109
0.623
1.078
1.474
1.811
2.087
2.3
2.446
2.525
2.537
2.482
2.361
2.176
1.928
1.62
1.253
0.829
0.352
-0.177
-0.756
-1.382
-2.05
-2.758
-3.502
-4.278
-5.083
-5.912
-6.761
-7.627
-8.504
-9.389
-10.278
-11.167
-12.051
-12.926
-13.788
-14.632
-15.456
-16.254
-17.023
-17.758
-18.456
-19.114
-19.727
-20.294
-20.811
-21.276
-21.686
-22.041
-22.339
-22.579
-22.761
-22.884
-22.95
-22.959
-22.913
-22.814
-22.663
-22.463
-22.217
-21.928
-21.599
-21.232
-20.833
-20.404
-19.95
-19.475
-18.983
-18.479
-17.966
-17.451
-16.936
-16.426
-15.927
-15.443
-14.978
-14.537
-14.125
-13.746
-13.404
-13.103
-12.845
-12.634
-12.472
-12.36
-12.3
-12.293
-12.339
-12.439
-12.592
-12.797
-13.055
-13.362
-13.718
-14.121
-14.568
-15.057
-15.585
-16.149
-16.745
-17.37
-18.02
-18.691
-19.38
-20.081
-20.789
-21.501
-22.211
-22.914
-23.604
-24.277
-24.927
-25.549
-26.14
-26.696
-27.212
-27.684
-28.111
-28.489
-28.815
-29.087
-29.303
-29.461
-29.561
-29.599
-29.576
-29.492
-29.344
-29.135
-28.863
-28.53
-28.135
-27.682
-27.17
-26.603
-25.982
-25.311
-24.593
-23.832
-23.033
-22.198
-21.335
-20.446
-19.536
-18.612
-17.677
-16.735
-15.793
-14.854
-13.924
-13.007
-12.108
-11.231
-10.382
-9.565
-8.786
-8.048
-7.356
-6.714
-6.128
-5.599
-5.133
-4.733
-4.4
-4.138
-3.947
-3.827
-3.777
-3.797
-3.884
-4.036
-4.25
-4.524
-4.854
-5.237
-5.671
-6.15
-6.67
-7.224
-7.807
-8.41
-9.026
-9.645
-10.258
-10.853
-11.421
-11.953
-12.438
-12.866
-13.225
-13.497
-13.671
-13.74
-13.698
-13.542
-13.272
-12.892
-12.409
-11.839
-11.196
-10.492
-9.736
-8.933
-8.088
-7.204
-6.287
-5.348
-4.384
-3.384
-2.332
-1.206
0.018
1.364
2.868
4.574
6.518
8.724
11.205
13.957
16.97
20.224
23.691
27.34
31.122
34.97
38.807
42.541
46.083
49.348
52.236
54.64
56.469
57.651
58.132
57.885
56.9
55.189
52.789
49.742
46.118
42.001
37.486
32.691
27.733
22.72
17.777
13.03
8.588
4.545
0.98
-2.063
-4.56
-6.534
-8.042
-9.15
-9.926
-10.425
-10.72
-10.918
-11.129
-11.462
-12.027
-12.896
-14.161
-15.982
-18.411
-21.367
-24.642
-27.785
-30.331
-31.972
-32.327
-30.907
-27.527
-22.317
-15.733
-8.895
-2.887
1.651
3.913
3.079
-0.908
-7.399
-15.056
-21.323
-23.408
-18.96
-5.06
21.511
61.743
113.659
174.305
239.476
307.482
383.085
468.848
560.326
647.508
710.363
727.81
693.271
608.239
482.074
336.755
188.127
51.399
-50.478
-108.598
-120.198
-88.824
-39.625
5.385
33.304
34.637
18.747
-0.103
-15.41
-20.714
-18.332
-16.378
-17.142
-21.953
-29.888
-36.591
-40.533
-41.828
-40.611
-38.008
-34.849
-31.358
-28.011
-25.341
-23.533
-22.629
-22.61
-23.348
-24.743
-26.735
-29.203
-31.98
-34.948
-38.036
-41.157
-44.237
-47.173
-49.837
-52.145
-54.055
-55.545
-56.611
-57.258
-57.491
-57.334
-56.828
-56.012
-54.924
-53.606
-52.091
-50.425
-48.661
-46.853
-45.058
-43.318
-41.659
-40.099
-38.65
-37.314
-36.095
-34.986
-33.976
-33.056
-32.221
-31.467
-30.791
-30.186
-29.645
-29.158
-28.716
-28.309
-27.933
-27.579
-27.242
-26.917
-26.597
-26.279
-25.958
-25.629
-25.283
-24.912
-24.506
-24.056
-23.551
-22.982
-22.338
-21.609
-20.787
-19.863
-18.83
-17.68
-16.407
-15.006
-13.47
-11.797
-9.981
-8.02
-5.91
-3.652
-1.242
1.319
4.03
6.892
9.901
13.056
16.353
19.788
23.356
27.05
30.863
34.788
38.815
42.934
47.134
51.403
55.728
60.095
64.49
68.898
73.303
77.69
82.042
86.345
90.58
94.733
98.786
102.724
106.53
110.189
113.685
117.001
120.124
123.038
125.729
128.184
130.389
132.331
134
135.386
136.478
137.269
137.751
137.92
137.771
137.302
136.511
135.4
133.969
132.223
130.166
127.804
125.147
122.202
118.98
115.493
111.755
107.778
103.578
99.171
94.573
89.802
84.876
79.813
74.633
69.355
64
58.588
53.139
47.673
42.212
36.774
31.38
26.049
20.798
15.645
10.607
5.699
0.936
-3.669
-8.102
-12.354
-16.413
-20.271
-23.921
-27.357
-30.574
-33.569
-36.339
-38.885
-41.205
-43.301
-45.176
-46.833
-48.276
-49.509
-50.539
-51.373
-52.018
-52.483
-52.776
-52.908
-52.887
-52.726
-52.433
-52.021
-51.498
-50.877
-50.167
-49.378
-48.522
-47.607
-46.645
-45.643
-44.612
-43.559
-42.492
-41.419
-40.345
-39.278
-38.221
-37.179
-36.158
-35.16
-34.189
-33.249
-32.342
-31.469
-30.634
-29.838
-29.081
-28.364
-27.688
-27.051
-26.454
-25.895
-25.374
-24.891
-24.444
-24.032
-23.654
-23.309
-22.996
-22.713
-22.459
-22.232
-22.032
-21.856
-21.704
-21.575
-21.47
-21.388
-21.328
-21.292
-21.28
-21.292
-21.327
-21.387
-21.47
-21.576
-21.707
-21.861
-22.038
-22.24
-22.464
-22.713
-22.986
-23.281
-23.6
-23.941
-24.303
-24.685
-25.087
-25.507
-25.945
-26.398
-26.867
-27.35
-27.845
-28.352
-28.867
-29.39
-29.916
-30.444
-30.971
-31.493
-32.008
-32.513
-33.005
-33.481
-33.94
-34.378
-34.794
-35.185
-35.549
-35.884
-36.188
-36.458
-36.694
-36.894
-37.058
-37.185
-37.274
-37.326
-37.34
-37.317
-37.257
-37.161
-37.029
-36.863
-36.662
-36.43
-36.168
-35.879
-35.564
-35.227
-34.872
-34.501
-34.118
-33.726
-33.328
-32.928
-32.529
-32.135
-31.748
-31.371
-31.01
-30.666
-30.343
-30.044
-29.772
-29.53
-29.32
-29.145
-29.005
-28.904
-28.843
-28.824
-28.847
-28.915
-29.028
-29.187
-29.392
-29.644
-29.942
-30.286
-30.674
-31.106
-31.58
-32.095
-32.649
-33.241
-33.87
-34.533
-35.23
-35.958
-36.716
-37.5
-38.311
-39.144
-39.999
-40.872
-41.762
-42.666
-43.583
-44.51
-45.445
-46.387
-47.332
-48.278
-49.225
-50.168
-51.107
-52.04
-52.964
-53.878
-54.78
-55.669
-56.544
-57.404
-58.246
-59.069
-59.87
-60.649
-61.401
-62.125
-62.818
-63.477
-64.1
-64.683
-65.224
-65.72
-66.169
-66.566
-66.91
-67.197
-67.425
-67.591
-67.691
-67.724
-67.687
-67.578
-67.395
-67.135
-66.798
-66.382
-65.885
-65.306
-64.645
-63.9
-63.072
-62.162
-61.172
-60.103
-58.96
-57.748
-56.473
-55.14
-53.758
-52.335
-50.878
-49.398
-47.902
-46.4
-44.901
-43.414
-41.95
-40.519
-39.133
-37.802
-36.539
-35.354
-34.26
-33.267
-32.386
-31.623
-30.986
-30.481
-30.118
-29.91
-29.869
-29.999
-30.305
-30.789
-31.449
-32.281
-33.269
-34.385
-35.598
-36.881
-38.207
-39.56
-40.921
-42.268
-43.569
-44.79
-45.9
-46.878
-47.715
-48.396
-48.917
-49.282
-49.53
-49.746
-50.015
-50.418
-51.009
-51.812
-52.871
-54.249
-56.009
-58.212
-60.909
-64.099
-67.805
-72.117
-77.005
-82.324
-87.811
-92.978
-97.371
-100.701
-102.552
-102.41
-100.142
-95.85
-89.894
-83.258
-76.685
-70.556
-65.742
-63.097
-62.571
-63.63
-65.132
-64.87
-60.899
-51.58
-34.128
-5.503
34.411
83.326
139.022
197.809
260.761
334.041
415.588
497.936
567.364
602.454
593.25
541.797
454.97
345.78
225.273
100.456
-16.481
-108.469
-164.181
-179.35
-161.755
-131.773
-104.694
-87.871
-81.401
-77.504
-72.196
-66.064
-60.945
-60.277
-64.493
-71.514
-79.325
-85.63
-89.324
-90.42
-88.986
-85.502
-80.685
-75.165
-69.678
-64.92
-61.193
-58.589
-57.099
-56.542
-56.76
-57.617
-58.911
-60.468
-62.164
-63.889
-65.557
-67.078
-68.33
-69.219
-69.683
-69.682
-69.211
-68.272
-66.87
-65.036
-62.814
-60.245
-57.375
-54.242
-50.881
-47.344
-43.685
-39.966
-36.253
-32.592
-29.019
-25.561
-22.235
-19.049
-16.009
-13.11
-10.338
-7.691
-5.161
-2.749
-0.454
1.729
3.808
5.79
7.684
9.498
11.236
12.905
14.512
16.059
17.55
18.986
20.37
21.705
22.997
24.253
25.481
26.689
27.889
29.09
30.304
31.541
32.809
34.118
35.474
36.883
38.353
39.885
41.485
43.156
44.901
46.727
48.638
50.637
52.73
54.92
57.211
59.606
62.109
64.717
67.431
70.25
73.176
76.214
79.367
82.631
85.999
89.463
93.008
96.621
100.28
103.954
107.61
111.219
114.754
118.206
121.566
124.826
127.977
131.008
133.919
136.723
139.444
142.099
144.706
147.282
149.855
152.476
155.195
158.056
161.088
164.285
167.632
171.115
174.712
178.392
182.096
185.728
189.181
192.365
195.205
197.636
199.583
200.936
201.593
201.465
200.491
198.653
195.941
192.345
187.867
182.531
176.412
169.646
162.38
154.731
146.798
138.659
130.402
122.149
114.013
106.088
98.443
91.115
84.147
77.597
71.51
65.915
60.785
56.031
51.565
47.325
43.272
39.384
35.632
31.964
28.344
24.756
21.196
17.677
14.19
10.708
7.207
3.673
0.127
-3.374
-6.776
-10.047
-13.165
-16.119
-18.895
-21.47
-23.834
-26
-27.982
-29.797
-31.449
-32.927
-34.225
-35.338
-36.276
-37.064
-37.721
-38.26
-38.694
-39.034
-39.291
-39.485
-39.621
-39.699
-39.719
-39.679
-39.587
-39.452
-39.283
-39.089
-38.875
-38.645
-38.404
-38.158
-37.91
-37.663
-37.417
-37.173
-36.934
-36.703
-36.485
-36.282
-36.097
-35.93
-35.784
-35.66
-35.561
-35.486
-35.437
-35.413
-35.416
-35.448
-35.508
-35.597
-35.716
-35.865
-36.044
-36.251
-36.486
-36.747
-37.031
-37.339
-37.666
-38.011
-38.372
-38.745
-39.13
-39.524
-39.924
-40.329
-40.736
-41.143
-41.549
-41.951
-42.347
-42.735
-43.114
-43.481
-43.834
-44.171
-44.491
-44.792
-45.071
-45.328
-45.559
-45.765
-45.944
-46.095
-46.217
-46.31
-46.374
-46.41
-46.418
-46.4
-46.356
-46.288
-46.198
-46.086
-45.955
-45.808
-45.645
-45.469
-45.282
-45.087
-44.885
-44.679
-44.472
-44.265
-44.062
-43.864
-43.674
-43.494
-43.328
-43.177
-43.045
-42.934
-42.846
-42.784
-42.751
-42.748
-42.778
-42.842
-42.941
-43.077
-43.251
-43.463
-43.714
-44.004
-44.334
-44.703
-45.111
-45.559
-46.045
-46.57
-47.133
-47.733
-48.369
-49.04
-49.744
-50.482
-51.251
-52.049
-52.874
-53.725
-54.6
-55.494
-56.406
-57.331
-58.266
-59.207
-60.149
-61.086
-62.015
-62.929
-63.825
-64.696
-65.537
-66.342
-67.106
-67.823
-68.488
-69.093
-69.632
-70.1
-70.489
-70.794
-71.009
-71.127
-71.143
-71.051
-70.845
-70.521
-70.074
-69.498
-68.79
-67.946
-66.963
-65.84
-64.576
-63.172
-61.629
-59.95
-58.142
-56.209
-54.159
-51.999
-49.736
-47.382
-44.947
-42.442
-39.876
-37.264
-34.617
-31.952
-29.283
-26.628
-24.001
-21.419
-18.897
-16.453
-14.106
-11.871
-9.763
-7.795
-5.986
-4.349
-2.907
-1.673
-0.657
0.133
0.693
1.021
1.118
0.995
0.673
0.174
-0.477
-1.254
-2.139
-3.105
-4.125
-5.171
-6.209
-7.21
-8.158
-9.035
-9.826
-10.533
-11.16
-11.73
-12.296
-12.915
-13.657
-14.597
-15.796
-17.308
-19.175
-21.436
-24.132
-27.299
-30.953
-35.111
-39.759
-44.89
-50.533
-56.602
-62.903
-69.135
-74.807
-79.419
-82.557
-83.693
-82.295
-78.205
-71.473
-62.579
-52.608
-42.517
-33.198
-25.815
-21.175
-19.244
-19.569
-20.759
-20.199
-15.418
-3.725
18.42
52.361
96.571
149.793
209.359
275.317
352.839
441.276
534.299
618.709
673.464
685.843
653.739
582.404
484.767
372.055
252.671
138.893
45.005
-18.817
-48.122
-50.214
-42.474
-36.759
-38.322
-45.698
-50.456
-49.581
-45.105
-39.672
-37.197
-38.59
-41.786
-45
-46.92
-46.714
-44.249
-39.538
-32.755
-24.681
-16.676
-10.191
-6.07
-4.427
-4.851
-6.919
-10.339
-14.718
-19.39
-23.466
-26.375
-28.148
-29.254
-30.117
-30.904
-31.622
-32.28
-33.044
-34.053
-35.214
-36.243
-36.877
-36.996
-36.615
-35.827
-34.68
-33.182
-31.376
-29.341
-27.168
-24.934
-22.687
-20.447
-18.238
-16.088
-14.026
-12.079
-10.265
-8.586
-7.04
-5.615
-4.299
-3.083
-1.963
-0.936
0.005
0.867
1.656
2.381
3.045
3.654
4.219
4.751
5.261
5.757
6.245
6.731
7.219
7.719
8.238
8.786
9.372
10.005
10.695
11.451
12.284
13.202
14.213
15.325
16.543
17.874
19.324
20.9
22.605
24.445
26.424
28.543
30.806
33.214
35.766
38.463
41.301
44.28
47.396
50.643
54.017
57.512
61.12
64.834
68.645
72.544
76.52
80.563
84.661
88.803
92.975
97.164
101.356
105.538
109.694
113.81
117.87
121.859
125.761
129.56
133.24
136.786
140.181
143.411
146.461
149.315
151.959
154.381
156.566
158.505
160.185
161.596
162.729
163.577
164.132
164.39
164.344
163.992
163.332
162.363
161.085
159.5
157.612
155.425
152.945
150.18
147.137
143.828
140.263
136.453
132.414
128.158
123.702
119.061
114.252
109.293
104.202
98.998
93.7
88.326
82.897
77.431
71.946
66.463
60.999
55.572
50.2
44.901
39.689
34.581
29.593
24.737
20.027
15.474
11.09
6.884
2.863
-0.963
-4.591
-8.014
-11.229
-14.233
-17.026
-19.606
-21.975
-24.134
-26.086
-27.836
-29.389
-30.749
-31.923
-32.919
-33.744
-34.406
-34.913
-35.275
-35.501
-35.601
-35.584
-35.461
-35.242
-34.937
-34.556
-34.111
-33.609
-33.062
-32.478
-31.865
-31.234
-30.591
-29.944
-29.301
-28.668
-28.052
-27.459
-26.893
-26.36
-25.864
-25.409
-24.997
-24.631
-24.314
-24.047
-23.831
-23.668
-23.558
-23.501
-23.498
-23.548
-23.65
-23.803
-24.006
-24.258
-24.556
-24.898
-25.282
-25.707
-26.169
-26.666
-27.196
-27.757
-28.345
-28.959
-29.596
-30.253
-30.929
-31.62
-32.324
-33.04
-33.764
-34.497
-35.235
-35.978
-36.725
-37.476
-38.229
-38.983
-39.739
-40.496
-41.252
-42.008
-42.764
-43.518
-44.27
-45.022
-45.771
-46.52
-47.268
-48.016
-48.764
-49.512
-50.261
-51.011
-51.762
-52.515
-53.269
-54.025
-54.783
-55.543
-56.306
-57.071
-57.838
-58.606
-59.374
-60.139
-60.899
-61.651
-62.391
-63.116
-63.825
-64.514
-65.181
-65.825
-66.446
-67.042
-67.611
-68.152
-68.662
-69.137
-69.575
-69.972
-70.324
-70.629
-70.881
-71.079
-71.223
-71.312
-71.346
-71.322
-71.235
-71.083
-70.87
-70.6
-70.281
-69.923
-69.538
-69.146
-68.773
-68.446
-68.189
-68.024
-67.965
-68.025
-68.216
-68.549
-69.04
-69.687
-70.481
-71.408
-72.45
-73.591
-74.811
-76.072
-77.32
-78.506
-79.587
-80.526
-81.295
-81.865
-82.221
-82.358
-82.283
-82.033
-81.664
-81.238
-80.83
-80.503
-80.32
-80.37
-80.764
-81.601
-82.977
-84.987
-87.715
-91.263
-95.71
-101.094
-107.427
