Name
Date of Birth,"Jan 30, 1994"
Recorded Date,2024-09-07 23:30:46 -0700
Classification,Sinus Rhythm
Symptoms,
Software Version,1.90
Device,"Watch6,3"
Sample Rate,512 hertz


Lead,Lead I
Unit,µV

77.583
76.483
75.363
74.221
73.055
71.861
70.637
69.377
68.077
66.732
65.336
63.883
62.367
60.781
59.117
57.37
55.531
53.595
51.554
49.4
47.129
44.732
42.205
39.542
36.738
33.789
30.691
27.442
24.04
20.485
16.778
12.921
8.916
4.77
0.487
-3.926
-8.46
-13.105
-17.852
-22.688
-27.602
-32.58
-37.607
-42.668
-47.749
-52.831
-57.9
-62.937
-67.925
-72.845
-77.681
-82.414
-87.026
-91.499
-95.815
-99.956
-103.904
-107.644
-111.159
-114.433
-117.451
-120.2
-122.667
-124.84
-126.71
-128.267
-129.502
-130.41
-130.986
-131.224
-131.122
-130.68
-129.896
-128.772
-127.31
-125.514
-123.388
-120.939
-118.174
-115.101
-111.729
-108.068
-104.131
-99.929
-95.474
-90.783
-85.868
-80.747
-75.435
-69.95
-64.311
-58.534
-52.64
-46.647
-40.574
-34.442
-28.268
-22.073
-15.877
-9.699
-3.558
2.527
8.536
14.452
20.255
25.929
31.456
36.82
42.005
46.996
51.779
56.34
60.668
64.75
68.575
72.135
75.419
78.422
81.136
83.557
85.682
87.508
89.035
90.262
91.192
91.827
92.171
92.23
92.011
91.52
90.767
89.762
88.516
87.042
85.352
83.462
81.385
79.138
76.737
74.198
71.538
68.775
65.926
63.009
60.041
57.041
54.027
51.015
48.024
45.07
42.169
39.336
36.587
33.936
31.394
28.976
26.691
24.552
22.566
20.742
19.089
17.611
16.314
15.201
14.276
13.537
12.987
12.623
12.444
12.446
12.625
12.977
13.496
14.175
15.008
15.987
17.102
18.346
19.707
21.176
22.743
24.397
26.129
27.926
29.779
31.678
33.611
35.569
37.54
39.514
41.481
43.432
45.356
47.244
49.089
50.881
52.615
54.283
55.878
57.396
58.83
60.176
61.429
62.586
63.642
64.597
65.447
66.191
66.829
67.359
67.783
68.099
68.309
68.413
68.412
68.305
68.094
67.782
67.37
66.86
66.257
65.562
64.781
63.916
62.973
61.955
60.866
59.71
58.491
57.215
55.886
54.51
53.092
51.637
50.151
48.639
47.107
45.559
44
42.432
40.86
39.29
37.724
36.169
34.629
33.112
31.623
30.17
28.759
27.396
26.085
24.83
23.637
22.508
21.444
20.448
19.521
18.67
17.897
17.207
16.603
16.09
15.67
15.347
15.123
14.998
14.967
15.028
15.182
15.43
15.781
16.236
16.794
17.451
18.201
19.039
19.95
20.914
21.895
22.863
23.795
24.681
25.519
26.309
27.047
27.73
28.36
28.948
29.506
30.041
30.55
31.033
31.511
32.026
32.643
33.424
34.402
35.59
36.991
38.598
40.388
42.325
44.338
46.337
48.248
50.018
51.622
53.03
54.186
55.01
55.398
55.255
54.519
53.15
51.11
48.38
44.98
40.974
36.482
31.664
26.646
21.52
16.356
11.214
6.182
1.371
-3.105
-7.141
-10.647
-13.542
-15.725
-17.115
-17.677
-17.42
-16.419
-14.793
-12.62
-9.955
-6.846
-3.325
0.552
4.715
9.11
13.692
18.417
23.242
28.092
32.898
37.623
42.256
46.834
51.431
56.096
60.862
65.774
70.871
76.209
81.867
87.884
94.275
101.051
108.207
115.758
123.723
132.091
140.836
149.899
159.186
168.621
178.124
187.589
196.901
205.917
214.462
222.415
229.69
236.22
241.964
246.876
250.91
254.049
256.302
257.699
258.296
258.138
257.267
255.767
253.726
251.27
248.555
245.674
242.678
239.596
236.429
233.189
229.904
226.588
223.22
219.755
216.148
212.368
208.394
204.217
199.787
194.974
189.741
184.203
178.619
173.455
169.169
166.071
164.552
165.045
167.646
172.195
178.095
184.153
189.274
192.605
193.243
190.621
184.997
177.272
169.225
163.463
162.816
170.279
188.514
219.648
263.235
315.859
375.357
439.575
507.503
580.916
653.172
711.553
744.347
738.198
692.631
620.129
532.256
442.851
359.62
281.403
209.936
147.461
96.307
60.736
41.785
37.42
44.569
59.013
76.329
92.739
105.607
113.442
115.743
112.966
106.126
96.506
85.83
75.879
67.667
61.589
57.591
55.184
53.847
53.093
52.275
50.732
48.123
44.337
39.441
33.66
27.165
20.082
12.586
4.854
-2.964
-10.741
-18.376
-25.794
-32.923
-39.698
-46.076
-52.028
-57.546
-62.635
-67.315
-71.619
-75.574
-79.211
-82.558
-85.641
-88.497
-91.168
-93.697
-96.133
-98.508
-100.845
-103.163
-105.474
-107.784
-110.091
-112.39
-114.666
-116.912
-119.124
-121.298
-123.433
-125.526
-127.568
-129.554
-131.478
-133.338
-135.129
-136.848
-138.494
-140.066
-141.564
-142.994
-144.359
-145.652
-146.871
-148.012
-149.074
-150.06
-150.967
-151.781
-152.502
-153.154
-153.752
-154.319
-154.853
-155.319
-155.706
-156.052
-156.333
-156.463
-156.377
-156.002
-155.327
-154.458
-153.432
-152.137
-150.679
-149.473
-148.623
-148.003
-147.666
-147.196
-147.338
-150.669
-156.776
-163.246
-166.316
-158.699
-140.473
-119.057
-101.717
-98.784
-111.432
-129.801
-146.234
-152.623
-147.151
-137.178
-127.356
-120.711
-118.347
-117.292
-116.108
-114.929
-113.648
-112.717
-112.284
-111.952
-111.598
-111.304
-111.07
-110.884
-110.771
-110.756
-110.884
-111.231
-111.828
-112.647
-113.683
-114.945
-116.433
-118.154
-120.108
-122.284
-124.679
-127.294
-130.129
-133.178
-136.437
-139.897
-143.548
-147.381
-151.387
-155.553
-159.867
-164.317
-168.888
-173.567
-178.338
-183.188
-188.101
-193.061
-198.053
-203.062
-208.071
-213.065
-218.028
-222.945
-227.802
-232.585
-237.279
-241.871
-246.35
-250.703
-254.919
-258.989
-262.903
-266.653
-270.232
-273.634
-276.855
-279.891
-282.739
-285.398
-287.869
-290.152
-292.248
-294.159
-295.89
-297.444
-298.824
-300.037
-301.088
-301.983
-302.728
-303.33
-303.797
-304.135
-304.353
-304.458
-304.458
-304.361
-304.175
-303.909
-303.57
-303.166
-302.706
-302.197
-301.647
-301.062
-300.451
-299.818
-299.171
-298.516
-297.856
-297.198
-296.546
-295.903
-295.273
-294.66
-294.066
-293.494
-292.946
-292.425
-291.932
-291.469
-291.038
-290.64
-290.276
-289.947
-289.655
-289.399
-289.179
-288.997
-288.851
-288.742
-288.668
-288.629
-288.624
-288.651
-288.708
-288.793
-288.904
-289.039
-289.194
-289.366
-289.552
-289.749
-289.954
-290.162
-290.372
-290.578
-290.777
-290.965
-291.139
-291.293
-291.424
-291.528
-291.599
-291.632
-291.624
-291.568
-291.462
-291.299
-291.075
-290.786
-290.428
-289.995
-289.484
-288.892
-288.214
-287.448
-286.591
-285.641
-284.598
-283.459
-282.225
-280.897
-279.473
-277.957
-276.348
-274.649
-272.862
-270.988
-269.031
-266.995
-264.881
-262.695
-260.441
-258.123
-255.747
-253.318
-250.842
-248.324
-245.771
-243.188
-240.583
-237.962
-235.331
-232.698
-230.069
-227.453
-224.854
-222.281
-219.738
-217.232
-214.768
-212.35
-209.983
-207.671
-205.416
-203.224
-201.095
-199.033
-197.041
-195.119
-193.269
-191.492
-189.788
-188.158
-186.601
-185.116
-183.703
-182.358
-181.081
-179.87
-178.721
-177.632
-176.599
-175.619
-174.687
-173.798
-172.947
-172.131
-171.342
-170.576
-169.829
-169.094
-168.368
-167.646
-166.924
-166.197
-165.461
-164.712
-163.947
-163.161
-162.351
-161.515
-160.648
-159.75
-158.816
-157.846
-156.839
-155.792
-154.705
-153.578
-152.409
-151.199
-149.949
-148.658
-147.33
-145.965
-144.565
-143.134
-141.675
-140.189
-138.682
-137.156
-135.614
-134.061
-132.498
-130.931
-129.362
-127.796
-126.234
-124.682
-123.142
-121.617
-120.11
-118.624
-117.162
-115.725
-114.314
-112.932
-111.579
-110.256
-108.963
-107.701
-106.467
-105.262
-104.083
-102.928
-101.794
-100.678
-99.574
-98.48
-97.39
-96.299
-95.201
-94.092
-92.966
-91.817
-90.64
-89.427
-88.174
-86.873
-85.519
-84.105
-82.625
-81.075
-79.447
-77.739
-75.945
-74.062
-72.086
-70.014
-67.845
-65.576
-63.208
-60.741
-58.176
-55.516
-52.766
-49.93
-47.016
-44.033
-40.987
-37.89
-34.751
-31.584
-28.398
-25.208
-22.025
-18.862
-15.734
-12.656
-9.643
-6.71
-3.872
-1.143
1.461
3.924
6.231
8.369
10.328
12.097
13.666
15.025
16.159
17.062
17.729
18.158
18.349
18.303
18.023
17.521
16.821
15.947
14.929
13.79
12.551
11.237
9.877
8.504
7.153
5.856
4.633
3.505
2.496
1.621
0.891
0.3
-0.192
-0.644
-1.114
-1.664
-2.333
-3.146
-4.146
-5.388
-6.935
-8.832
-11.083
-13.67
-16.625
-20.033
-23.925
-28.202
-32.554
-36.539
-39.782
-41.944
-42.603
-41.259
-37.546
-31.444
-23.559
-14.86
-6.062
1.875
7.659
10.418
9.515
6.201
4.444
6.456
12.943
23.363
34.384
48.284
71.512
110.259
172.463
260.037
369.097
491.279
611.346
709.788
766.719
772.854
729.394
649.25
551.466
443.384
330.562
216.829
107.033
18.947
-37.258
-59.643
-52.583
-30.664
-0.168
35.872
72.024
102.576
116.198
106.637
78.34
42.954
14.466
0.11
-1.664
2.314
5.894
7.082
7.002
7.998
10.818
14.556
18.103
20.563
21.792
22.082
21.574
20.366
18.587
16.35
13.788
10.995
7.999
4.836
1.565
-1.719
-4.907
-7.892
-10.569
-12.86
-14.723
-16.14
-17.11
-17.645
-17.761
-17.483
-16.849
-15.899
-14.673
-13.212
-11.555
-9.752
-7.858
-5.929
-4.019
-2.17
-0.407
1.252
2.798
4.226
5.532
6.72
7.798
8.773
9.646
10.422
11.102
11.692
12.199
12.633
13.002
13.314
13.578
13.8
13.986
14.145
14.282
14.403
14.515
14.624
14.74
14.873
15.034
15.233
15.482
15.791
16.172
16.635
17.192
17.85
18.619
19.506
20.519
21.665
22.948
24.375
25.949
27.675
29.554
31.589
33.78
36.127
38.629
41.285
44.09
47.04
50.131
53.357
56.71
60.183
63.768
67.454
71.232
75.089
79.014
82.992
87.01
91.052
95.103
99.146
103.165
107.142
111.062
114.906
118.658
122.299
125.814
129.184
132.394
135.427
138.267
140.898
143.306
145.477
147.397
149.055
150.439
151.539
152.345
152.848
153.043
152.923
152.483
151.721
150.634
149.223
147.489
145.436
143.068
140.391
137.414
134.147
130.599
126.783
122.713
118.403
113.87
109.13
104.201
99.102
93.853
88.473
82.982
77.401
71.751
66.051
60.324
54.589
48.866
43.177
37.54
31.975
26.5
21.134
15.894
10.794
5.852
1.079
-3.51
-7.906
-12.097
-16.075
-19.833
-23.365
-26.665
-29.732
-32.563
-35.158
-37.518
-39.647
-41.546
-43.221
-44.678
-45.922
-46.96
-47.8
-48.45
-48.918
-49.214
-49.347
-49.327
-49.164
-48.869
-48.452
-47.925
-47.297
-46.579
-45.781
-44.914
-43.987
-43.009
-41.991
-40.939
-39.864
-38.772
-37.67
-36.566
-35.465
-34.371
-33.29
-32.224
-31.177
-30.151
-29.149
-28.171
-27.219
-26.295
-25.399
-24.532
-23.695
-22.887
-22.108
-21.358
-20.637
-19.944
-19.277
-18.636
-18.021
-17.429
-16.86
-16.313
-15.787
-15.28
-14.791
-14.318
-13.861
-13.417
-12.986
-12.566
-12.156
-11.757
-11.367
-10.988
-10.617
-10.257
-9.906
-9.565
-9.234
-8.913
-8.6
-8.296
-8.001
-7.714
-7.434
-7.162
-6.897
-6.639
-6.386
-6.139
-5.897
-5.658
-5.423
-5.19
-4.958
-4.728
-4.499
-4.27
-4.042
-3.813
-3.585
-3.356
-3.126
-2.894
-2.66
-2.421
-2.179
-1.931
-1.677
-1.417
-1.15
-0.876
-0.594
-0.306
-0.01
0.294
0.605
0.923
1.248
1.579
1.916
2.259
2.605
2.954
3.306
3.659
4.013
4.367
4.719
5.07
5.419
5.765
6.107
6.445
6.777
7.102
7.418
7.725
8.022
8.306
8.577
8.834
9.076
9.303
9.513
9.706
9.881
10.038
10.177
10.297
10.398
10.481
10.546
10.594
10.624
10.639
10.639
10.624
10.595
10.553
10.5
10.435
10.36
10.276
10.184
10.085
9.982
9.875
9.767
9.659
9.553
9.451
9.355
9.265
9.185
9.115
9.057
9.013
8.983
8.97
8.973
8.994
9.033
9.092
9.169
9.265
9.381
9.516
9.671
9.844
10.037
10.248
10.478
10.726
10.991
11.273
11.57
11.882
12.206
12.543
12.889
13.244
13.605
13.971
14.339
14.707
15.074
15.436
15.792
16.139
16.475
16.799
17.107
17.399
17.672
17.925
18.154
18.359
18.536
18.683
18.798
18.878
18.92
18.92
18.878
18.789
18.652
18.465
18.223
17.927
17.573
17.159
16.684
16.147
15.544
14.875
14.139
13.335
12.462
11.52
10.507
9.423
8.268
7.042
5.745
4.375
2.935
1.424
-0.156
-1.801
-3.51
-5.279
-7.102
-8.975
-10.891
-12.845
-14.832
-16.845
-18.877
-20.924
-22.979
-25.036
-27.091
-29.134
-31.158
-33.152
-35.107
-37.015
-38.864
-40.644
-42.343
-43.95
-45.46
-46.864
-48.153
-49.316
-50.338
-51.208
-51.921
-52.474
-52.867
-53.101
-53.178
-53.11
-52.917
-52.62
-52.237
-51.779
-51.24
-50.623
-49.932
-49.169
-48.344
-47.453
-46.478
-45.408
-44.237
-42.954
-41.552
-40.002
-38.254
-36.271
-34.029
-31.522
-28.777
-25.817
-22.665
-19.359
-15.945
-12.487
-9.074
-5.775
-2.641
0.268
2.893
5.151
6.933
8.152
8.748
8.684
7.961
6.592
4.596
2.028
-1.036
-4.501
-8.248
-12.18
-16.225
-20.301
-24.319
-28.175
-31.747
-34.936
-37.675
-39.915
-41.649
-42.897
-43.707
-44.152
-44.318
-44.308
-44.243
-44.245
-44.414
-44.85
-45.642
-46.902
-48.802
-51.449
-54.823
-58.766
-62.941
-66.96
-70.503
-73.189
-74.496
-74.045
-71.784
-68.07
-63.82
-60.018
-57.306
-56.311
-57.759
-62.059
-68.906
-76.983
-83.888
-87.016
-84.017
-72.379
-49.417
-12.704
37.651
98.623
166.733
239.129
316.792
402.272
492.076
576.054
638.457
664.471
648.937
596.537
517.805
422.185
316.808
209.315
109.699
30.81
-18.38
-38.693
-40.226
-35.391
-32.461
-32.899
-32.057
-27.138
-19.377
-11.554
-7.593
-9.064
-14.799
-23.234
-32.732
-41.699
-48.924
-53.723
-55.764
-55.221
-52.728
-48.91
-44.334
-39.675
-35.539
-32.262
-30.023
-28.806
-28.444
-28.827
-29.859
-31.396
-33.311
-35.491
-37.837
-40.287
-42.774
-45.199
-47.452
-49.419
-51.017
-52.206
-52.963
-53.286
-53.182
-52.666
-51.768
-50.53
-48.99
-47.188
-45.163
-42.948
-40.591
-38.141
-35.648
-33.166
-30.735
-28.376
-26.107
-23.935
-21.863
-19.892
-18.014
-16.219
-14.499
-12.849
-11.263
-9.741
-8.278
-6.865
-5.495
-4.16
-2.854
-1.57
-0.304
0.948
2.191
3.429
4.663
5.897
7.134
8.379
9.638
10.918
12.225
13.566
14.947
16.376
17.858
19.399
21.006
22.682
24.432
26.26
28.171
30.168
32.254
34.433
36.706
39.075
41.541
44.107
46.771
49.533
52.393
55.349
58.398
61.537
64.763
68.072
71.457
74.914
78.435
82.014
85.641
89.309
93.008
96.726
100.454
104.178
107.888
111.569
115.21
118.797
122.316
125.753
129.095
132.328
135.437
138.408
141.226
143.879
146.352
148.631
150.705
152.56
154.186
155.572
156.708
157.586
158.197
158.534
158.593
158.367
157.855
157.055
155.965
154.587
152.923
150.979
148.758
146.27
143.521
140.521
137.283
133.817
130.136
126.255
122.19
117.956
113.57
109.051
104.417
99.686
94.879
90.015
85.113
80.194
75.276
70.378
65.519
60.717
55.99
51.355
46.827
42.423
38.156
34.04
30.087
26.307
22.709
19.3
16.087
13.075
10.268
7.666
5.273
3.086
1.106
-0.671
-2.248
-3.63
-4.825
-5.838
-6.679
-7.356
-7.879
-8.258
-8.504
-8.628
-8.641
-8.554
-8.38
-8.129
-7.814
-7.447
-7.04
-6.604
-6.15
-5.688
-5.229
-4.782
-4.354
-3.954
-3.588
-3.263
-2.984
-2.756
-2.583
-2.47
-2.42
-2.434
-2.515
-2.663
-2.879
-3.16
-3.508
-3.919
-4.392
-4.925
-5.515
-6.159
-6.855
-7.599
-8.388
-9.218
-10.083
-10.981
-11.907
-12.855
-13.822
-14.805
-15.798
-16.798
-17.803
-18.809
-19.814
-20.814
-21.807
-22.79
-23.762
-24.719
-25.66
-26.582
-27.485
-28.368
-29.229
-30.067
-30.882
-31.672
-32.438
-33.178
-33.891
-34.577
-35.234
-35.862
-36.461
-37.03
-37.57
-38.08
-38.56
-39.011
-39.432
-39.823
-40.184
-40.514
-40.813
-41.081
-41.316
-41.519
-41.69
-41.827
-41.931
-42.001
-42.038
-42.041
-42.01
-41.943
-41.842
-41.706
-41.534
-41.327
-41.087
-40.812
-40.506
-40.167
-39.798
-39.4
-38.972
-38.518
-38.036
-37.528
-36.996
-36.44
-35.861
-35.262
-34.642
-34.005
-33.351
-32.682
-31.999
-31.304
-30.599
-29.885
-29.163
-28.435
-27.704
-26.971
-26.237
-25.506
-24.778
-24.055
-23.34
-22.632
-21.934
-21.245
-20.568
-19.903
-19.25
-18.61
-17.984
-17.374
-16.78
-16.202
-15.641
-15.098
-14.573
-14.067
-13.579
-13.111
-12.663
-12.235
-11.828
-11.441
-11.076
-10.733
-10.411
-10.109
-9.828
-9.567
-9.325
-9.101
-8.894
-8.704
-8.529
-8.37
-8.225
-8.094
-7.976
-7.87
-7.776
-7.693
-7.619
-7.554
-7.498
-7.448
-7.405
-7.368
-7.337
-7.314
-7.293
-7.273
-7.252
-7.227
-7.197
-7.166
-7.127
-7.07
-7.009
-6.953
-6.91
-6.893
-6.888
-6.87
-6.859
-6.875
-6.868
-6.803
-6.652
-6.368
-5.99
-5.59
-5.127
-4.528
-3.986
-3.727
-3.614
-3.662
-3.912
-3.875
-4.869
-8.177
-11.965
-15.679
-15.952
-8.756
1.451
11.694
17.547
12.931
3.223
-7.019
-14.67
-14.568
-10.403
-5.916
-1.937
-0.746
-1.018
-1.049
-1.162
-1.139
-1.091
-1.363
-1.725
-1.996
-2.234
-2.449
-2.619
-2.747
-2.845
-2.917
-2.997
-3.121
-3.273
-3.436
-3.615
-3.807
-4.01
-4.225
-4.445
-4.661
-4.872
-5.076
-5.271
-5.455
-5.623
-5.773
-5.903
-6.012
-6.1
-6.164
-6.202
-6.208
-6.18
-6.113
-6.003
-5.844
-5.631
-5.359
-5.025
-4.628
-4.167
-3.638
-3.037
-2.354
-1.586
-0.733
0.201
1.213
2.298
3.445
4.638
5.849
7.054
8.234
9.381
10.495
11.573
12.613
13.609
14.558
15.467
16.347
17.208
18.052
18.885
19.722
20.595
21.556
22.643
23.874
25.246
26.739
28.334
30.006
31.721
33.435
35.08
36.59
37.912
39.004
39.827
40.328
40.436
40.063
39.145
37.653
35.592
32.986
29.86
26.258
22.235
17.88
13.304
8.615
3.906
-0.744
-5.268
-9.589
-13.617
-17.265
-20.488
-23.276
-25.664
-27.693
-29.388
-30.804
-32.019
-33.153
-34.353
-35.742
-37.419
-39.495
-42.119
-45.376
-49.239
-53.544
-57.967
-62.178
-65.925
-68.912
-70.691
-70.939
-69.691
-67.342
-64.678
-62.486
-61.122
-60.886
-62.442
-66.208
-71.798
-77.974
-82.672
-83.663
-79.226
-67.647
-46.428
-12.941
32.613
87.127
147.478
209.793
275.284
350.34
433.493
519.473
596.298
641.593
644.688
601.642
513.044
397.063
268.258
142.821
45.696
-15.144
-35.994
-21.697
1.28
17.637
18.7
0.144
-22.01
-38.586
-48.018
-47.531
-45.13
-46.052
-49.514
-56.396
-64.249
-70.409
-74.659
-76.543
-76.07
-73.822
-70.141
-65.355
-59.916
-54.333
-49.067
-44.412
-40.576
-37.613
-35.479
-34.168
-33.628
-33.751
-34.433
-35.58
-37.118
-39.02
-41.277
-43.83
-46.59
-49.459
-52.348
-55.193
-57.938
-60.516
-62.845
-64.87
-66.566
-67.938
-69.009
-69.787
-70.269
-70.441
-70.287
-69.811
-69.037
-67.994
-66.702
-65.189
-63.484
-61.637
-59.719
-57.779
-55.847
-53.936
-52.048
-50.194
-48.394
-46.664
-45.018
-43.465
-42.01
-40.658
-39.417
-38.285
-37.254
-36.304
-35.404
-34.53
-33.671
-32.819
-31.967
-31.111
-30.242
-29.355
-28.452
-27.527
-26.578
-25.596
-24.57
-23.495
-22.367
-21.183
-19.945
-18.649
-17.293
-15.874
-14.389
-12.833
-11.202
-9.492
-7.695
-5.806
-3.824
-1.746
0.429
2.701
5.068
7.53
10.084
12.726
15.453
18.262
21.147
24.104
27.127
30.209
33.341
36.516
39.723
42.953
46.195
49.436
52.665
55.869
59.035
62.15
65.201
68.174
71.054
73.829
76.484
79.005
81.378
83.591
85.629
87.481
89.135
90.58
91.805
92.8
93.557
94.068
94.326
94.323
94.056
93.518
92.708
91.624
90.264
88.63
86.724
84.549
82.109
79.412
76.464
73.273
69.848
66.201
62.343
58.286
54.044
49.63
45.061
40.351
35.516
30.574
25.541
20.435
15.272
10.071
4.85
-0.375
-5.585
-10.763
-15.892
-20.953
-25.932
-30.811
-35.575
-40.21
-44.702
-49.039
-53.208
-57.198
-61
-64.605
-68.004
-71.192
-74.161
-76.909
-79.431
-81.725
-83.79
-85.626
-87.234
-88.616
-89.776
-90.716
-91.442
-91.959
-92.273
-92.393
-92.326
-92.08
-91.667
-91.097
-90.38
-89.529
-88.554
-87.469
-86.287
-85.018
-83.677
-82.275
-80.825
-79.339
-77.83
-76.309
-74.789
-73.281
-71.795
-70.341
-68.93
-67.57
-66.269
-65.035
-63.876
-62.796
-61.803
-60.902
-60.096
-59.389
-58.785
-58.285
-57.891
-57.602
-57.418
-57.338
-57.359
-57.478
-57.692
-57.997
-58.387
-58.859
-59.406
-60.023
-60.703
-61.439
-62.225
-63.053
-63.917
-64.808
-65.721
-66.647
-67.581
-68.516
-69.446
-70.365
-71.266
-72.146
-72.998
-73.818
-74.601
-75.344
-76.042
-76.692
-77.293
-77.842
-78.338
-78.781
-79.17
-79.505
-79.788
-80.019
-80.2
-80.334
-80.422
-80.467
-80.473
-80.442
-80.38
-80.288
-80.172
-80.035
-79.882
-79.715
-79.539
-79.357
-79.172
-78.987
-78.805
-78.629
-78.462
-78.305
-78.16
-78.031
-77.917
-77.82
-77.74
-77.679
-77.636
-77.61
-77.601
-77.607
-77.628
-77.662
-77.706
-77.759
-77.818
-77.881
-77.944
-78.004
-78.059
-78.104
-78.136
-78.151
-78.147
-78.119
-78.066
-77.983
-77.868
-77.719
-77.532
-77.307
-77.039
-76.729
-76.373
-75.972
-75.523
-75.025
-74.48
-73.885
-73.242
-72.551
-71.814
-71.03
-70.201
-69.329
-68.415
-67.462
-66.472
-65.447
-64.39
-63.305
-62.195
-61.062
-59.911
-58.744
-57.566
-56.379
-55.187
-53.994
-52.802
-51.616
-50.438
-49.272
-48.121
-46.988
-45.876
-44.787
-43.725
-42.69
-41.686
-40.714
-39.775
-38.871
-38.002
-37.17
-36.376
-35.618
-34.898
-34.215
-33.568
-32.958
-32.383
-31.842
-31.334
-30.858
-30.414
-30
-29.615
-29.259
-28.931
-28.629
-28.351
-28.098
-27.867
-27.657
-27.466
-27.294
-27.138
-26.999
-26.874
-26.763
-26.666
-26.582
-26.51
-26.45
-26.403
-26.369
-26.347
-26.339
-26.346
-26.368
-26.406
-26.462
-26.536
-26.629
-26.741
-26.871
-27.018
-27.179
-27.354
-27.539
-27.734
-27.936
-28.142
-28.352
-28.565
-28.78
-28.994
-29.205
-29.409
-29.602
-29.781
-29.941
-30.076
-30.18
-30.246
-30.268
-30.243
-30.163
-30.02
-29.803
-29.499
-29.099
-28.599
-27.995
-27.288
-26.481
-25.58
-24.597
-23.555
-22.47
-21.357
-20.229
-19.089
-17.949
-16.825
-15.727
-14.668
-13.651
-12.666
-11.702
-10.744
-9.762
-8.72
-7.571
-6.255
-4.729
-2.969
-0.957
1.311
3.838
6.632
9.684
12.972
16.461
20.1
23.819
27.547
31.187
34.621
37.731
40.393
42.511
44.029
44.907
45.119
44.651
43.493
41.651
39.162
36.074
32.452
28.388
23.985
19.372
14.705
10.129
5.772
1.728
-1.96
-5.28
-8.222
-10.783
-12.973
-14.821
-16.384
-17.736
-18.946
-20.091
-21.282
-22.689
-24.442
-26.595
-29.067
-31.608
-33.939
-35.822
-36.974
-37.058
-35.83
-33.202
-29.431
-25.202
-21.252
-18.155
-16.371
-16.292
-18.19
-22.052
-27.105
-31.748
-33.915
-31.53
-22.932
-6.402
20.059
58.014
107.929
167.711
232.756
298.465
361.854
423.978
487.007
550.091
608.424
648.324
655.392
619.922
536.804
417.296
280.472
148.983
49.483
-7.325
-23.189
-10.306
7.87
18.035
16.345
5.468
-4.076
-8.19
-8.319
-6.678
-7.592
-12.31
-19.068
-26.508
-33.153
-37.677
-39.842
-39.673
-37.216
-33.024
-27.757
-21.921
-16.102
-10.884
-6.565
-3.299
-1.157
-0.023
0.217
-0.364
-1.618
-3.4
-5.582
-8.036
-10.661
-13.364
-16.025
-18.517
-20.719
-22.541
-23.937
-24.885
-25.377
-25.419
-25.026
-24.226
-23.066
-21.593
-19.851
-17.89
-15.753
-13.494
-11.171
-8.841
-6.558
-4.363
-2.278
-0.319
1.507
3.197
4.753
6.18
7.492
8.697
9.801
10.81
11.727
12.559
13.318
14.012
14.651
15.245
15.8
16.322
16.819
17.297
17.76
18.213
18.662
19.111
19.569
20.044
20.545
21.082
21.662
22.295
22.99
23.756
24.598
25.525
26.542
27.655
28.871
30.193
31.627
33.178
34.848
36.642
38.564
40.613
42.794
45.105
47.548
50.12
52.822
55.649
58.599
61.667
64.85
68.14
71.532
75.019
78.591
82.24
85.956
89.728
93.544
97.391
101.257
105.129
108.993
112.834
116.639
120.393
124.081
127.689
131.201
134.601
137.875
141.006
143.979
146.779
149.391
151.8
153.994
155.96
157.686
159.16
160.372
161.314
161.978
162.355
162.442
162.233
161.727
160.921
159.816
158.414
156.719
154.735
152.469
149.928
147.12
144.056
140.746
137.203
133.44
129.471
125.312
120.979
116.489
111.861
107.113
102.264
97.334
92.342
87.307
82.247
77.184
72.133
67.115
62.146
57.244
52.424
47.703
43.093
38.608
34.261
30.06
26.017
22.137
18.429
14.898
11.548
8.382
5.404
2.614
0.012
-2.402
-4.632
-6.679
-8.55
-10.249
-11.782
-13.157
-14.38
-15.461
-16.406
-17.226
-17.929
-18.523
-19.019
-19.426
-19.752
-20.008
-20.201
-20.341
-20.436
-20.493
-20.518
-20.519
-20.501
-20.47
-20.43
-20.385
-20.34
-20.299
-20.264
-20.239
-20.225
-20.225
-20.24
-20.27
-20.316
-20.377
-20.454
-20.544
-20.649
-20.765
-20.893
-21.031
-21.178
-21.332
-21.492
-21.656
-21.823
-21.992
-22.161
-22.33
-22.497
-22.663
-22.827
-22.989
-23.149
-23.309
-23.468
-23.626
-23.785
-23.945
-24.106
-24.268
-24.433
-24.601
-24.772
-24.948
-25.129
-25.316
-25.51
-25.712
-25.922
-26.141
-26.369
-26.607
-26.854
-27.112
-27.379
-27.656
-27.943
-28.24
-28.546
-28.859
-29.181
-29.508
-29.84
-30.175
-30.511
-30.848
-31.182
-31.514
-31.84
-32.159
-32.471
-32.773
-33.065
-33.345
-33.613
-33.866
-34.104
-34.327
-34.533
-34.721
-34.892
-35.044
-35.178
-35.293
-35.39
-35.468
-35.528
-35.57
-35.594
-35.602
-35.593
-35.57
-35.532
-35.482
-35.422
-35.352
-35.275
-35.194
-35.109
-35.023
-34.939
-34.858
-34.781
-34.712
-34.652
-34.603
-34.565
-34.542
-34.535
-34.544
-34.572
-34.619
-34.687
-34.775
-34.886
-35.018
-35.174
-35.352
-35.553
-35.777
-36.023
-36.292
-36.581
-36.891
-37.22
-37.567
-37.93
-38.306
-38.694
-39.091
-39.494
-39.902
-40.311
-40.719
-41.122
-41.518
-41.905
-42.279
-42.638
-42.979
-43.3
-43.598
-43.872
-44.119
-44.338
-44.527
-44.685
-44.811
-44.904
-44.964
-44.991
-44.984
-44.943
-44.87
-44.765
-44.63
-44.466
-44.275
-44.06
-43.823
-43.568
-43.297
-43.013
-42.721
-42.423
-42.124
-41.826
-41.535
-41.253
-40.984
-40.732
-40.502
-40.295
-40.115
-39.966
-39.85
-39.769
-39.726
-39.723
-39.76
-39.84
-39.963
-40.13
-40.341
-40.596
-40.893
-41.233
-41.613
-42.031
-42.485
-42.973
-43.492
-44.038
-44.608
-45.2
-45.81
-46.435
-47.07
-47.713
-48.359
-49.005
-49.647
-50.282
-50.905
-51.515
-52.108
-52.681
-53.232
-53.759
-54.26
-54.734
-55.179
-55.593
-55.976
-56.327
-56.647
-56.935
-57.192
-57.418
-57.616
-57.787
-57.932
-58.053
-58.152
-58.229
-58.286
-58.325
-58.344
-58.345
-58.327
-58.29
-58.236
-58.165
-58.078
-57.974
-57.853
-57.716
-57.562
-57.389
-57.193
-56.969
-56.712
-56.418
-56.083
-55.703
-55.274
-54.791
-54.251
-53.652
-52.99
-52.261
-51.457
-50.564
-49.575
-48.49
-47.311
-46.046
-44.703
-43.283
-41.798
-40.261
-38.681
-37.065
-35.406
-33.689
-31.906
-30.061
-28.162
-26.231
-24.28
-22.303
-20.298
-18.259
-16.178
-14.057
-11.882
-9.624
-7.279
-4.861
-2.404
0.025
2.379
4.634
6.769
8.774
10.629
12.291
13.724
14.903
15.796
16.378
16.61
16.432
15.826
14.818
13.457
11.836
10.024
8.06
5.987
3.846
1.684
-0.426
-2.429
-4.289
-5.963
-7.412
-8.597
-9.472
-10.045
-10.382
-10.565
-10.696
-10.872
-11.163
-11.658
-12.451
-13.621
-15.247
-17.415
-20.225
-23.715
-27.837
-32.431
-37.221
-41.911
-46.24
-49.888
-52.404
-53.479
-53.08
-51.432
-49.131
-46.747
-44.484
-42.545
-41.322
-40.99
-41.287
-41.415
-39.778
-34.62
-24.723
-8.918
14.187
45.853
86.861
137.091
195.112
258.483
324.639
390.741
453.049
507.046
548.213
572.554
578.638
568.204
542.82
503.088
446.627
369.761
274.864
171.878
78.501
12.867
-17.352
-16.7
-0.032
16.667
25.09
24.948
21.352
18.697
17.638
16.321
12.002
4.094
-6.02
-16.521
-25.349
-31.556
-35.142
-36.118
-34.807
-31.772
-27.543
-22.811
-18.331
-14.508
-11.506
-9.414
-8.158
-7.658
-7.874
-8.683
-9.942
-11.555
-13.426
-15.49
-17.711
-20.012
-22.291
-24.453
-26.391
-28.017
-29.283
-30.156
-30.619
-30.677
-30.34
-29.63
-28.584
-27.244
-25.654
-23.853
-21.881
-19.777
-17.586
-15.355
-13.135
-10.97
-8.89
-6.914
-5.056
-3.323
-1.718
-0.24
1.118
2.367
3.513
4.564
5.525
6.398
7.19
7.91
8.566
9.167
9.72
10.233
10.711
11.162
11.592
12.007
12.413
12.815
13.22
13.635
14.068
14.529
15.026
15.569
16.166
16.828
17.561
18.375
19.276
20.272
21.368
22.571
23.886
25.316
26.868
28.544
30.347
32.28
34.346
36.546
38.88
41.348
43.95
46.683
49.545
52.532
55.64
58.863
62.195
65.631
69.161
72.776
76.469
80.227
84.039
87.893
91.775
95.673
99.571
103.455
107.31
111.12
114.871
118.545
122.129
125.604
128.956
132.168
135.223
138.107
140.803
143.296
145.572
147.617
149.417
150.96
152.235
153.23
153.937
154.346
154.451
154.245
153.725
152.886
151.729
150.253
148.46
146.353
143.937
141.22
138.208
134.91
131.338
127.503
123.418
119.097
114.555
109.808
104.874
99.771
94.517
89.132
83.635
78.048
72.389
66.681
60.943
55.197
49.463
43.762
38.114
32.538
27.052
21.676
16.427
11.319
6.369
1.59
-3.006
-7.406
-11.602
-15.585
-19.346
-22.88
-26.182
-29.248
-32.077
-34.667
-37.018
-39.133
-41.013
-42.662
-44.085
-45.287
-46.276
-47.057
-47.64
-48.032
-48.245
-48.288
-48.171
-47.907
-47.507
-46.983
-46.346
-45.61
-44.786
-43.886
-42.922
-41.906
-40.849
-39.761
-38.654
-37.536
-36.419
-35.309
-34.216
-33.146
-32.107
-31.105
-30.146
-29.235
-28.375
-27.572
-26.827
-26.145
-25.526
-24.973
-24.486
-24.065
-23.711
-23.422
-23.197
-23.035
-22.932
-22.888
-22.898
-22.959
-23.069
-23.222
-23.415
-23.643
-23.903
-24.19
-24.501
-24.83
-25.174
-25.53
-25.894
-26.263
-26.634
-27.004
-27.371
-27.733
-28.088
-28.435
-28.772
-29.099
-29.415
-29.72
-30.015
-30.301
-30.577
-30.845
-31.107
-31.364
-31.618
-31.872
-32.127
-32.387
-32.655
-32.933
-33.226
-33.537
-33.87
-34.227
-34.613
-35.031
-35.483
-35.973
-36.503
-37.075
-37.693
-38.357
-39.07
-39.832
-40.644
-41.506
-42.419
-43.381
-44.391
-45.448
-46.55
-47.694
-48.879
-50.1
-51.356
-52.643
-53.957
-55.294
-56.65
-58.02
-59.398
-60.78
-62.161
-63.534
-64.895
-66.238
-67.558
-68.849
-70.106
-71.325
-72.5
-73.627
-74.702
-75.72
-76.678
-77.573
-78.402
-79.163
-79.854
-80.474
-81.024
-81.501
-81.908
-82.244
-82.51
-82.707
-82.838
-82.903
-82.906
-82.848
-82.734
-82.567
-82.351
-82.089
-81.787
-81.448
-81.076
-80.677
-80.255
-79.814
-79.359
-78.894
-78.424
-77.953
-77.485
-77.024
-76.575
-76.139
-75.72
-75.321
-74.943
-74.588
-74.257
-73.952
-73.674
-73.422
-73.197
-73
-72.83
-72.687
-72.57
-72.477
-72.408
-72.36
-72.333
-72.323
-72.328
-72.346
-72.375
-72.412
-72.453
-72.497
-72.539
-72.578
-72.611
-72.634
-72.646
-72.644
-72.625
-72.588
-72.53
-72.451
-72.349
-72.222
-72.071
-71.893
-71.69
-71.459
-71.201
-70.915
-70.601
-70.26
-69.891
-69.494
-69.07
-68.619
-68.142
-67.64
-67.114
-66.566
-65.997
-65.41
-64.806
-64.189
-63.561
-62.923
-62.279
-61.63
-60.978
-60.326
-59.675
-59.027
-58.383
-57.747
-57.118
-56.5
-55.893
-55.299
-54.719
-54.154
-53.606
-53.075
-52.563
-52.072
-51.602
-51.156
-50.734
-50.34
-49.972
-49.632
-49.32
-49.035
-48.775
-48.538
-48.322
-48.121
-47.934
-47.758
-47.589
-47.425
-47.264
-47.103
-46.942
-46.778
-46.608
-46.429
-46.234
-46.018
-45.776
-45.502
-45.189
-44.831
-44.421
-43.956
-43.433
-42.849
-42.197
-41.47
-40.656
-39.748
-38.745
-37.645
-36.448
-35.158
-33.784
-32.343
-30.863
-29.363
-27.853
-26.339
-24.818
-23.287
-21.748
-20.199
-18.638
-17.059
-15.454
-13.819
-12.159
-10.465
-8.721
-6.894
-4.933
-2.809
-0.518
1.936
4.53
7.24
10.036
12.873
15.686
18.415
21.005
23.417
25.631
27.608
29.299
30.643
31.568
32.04
32.055
31.618
30.747
29.469
27.821
25.875
23.736
21.494
19.227
16.99
14.817
12.754
10.854
9.165
7.717
6.486
5.426
4.491
3.646
2.867
2.108
1.278
0.27
-1.013
-2.65
-4.671
-7.121
-10.11
-13.638
-17.595
-21.772
-25.741
-29.094
-31.562
-32.735
-32.114
-29.577
-25.238
-19.468
-13.217
-7.232
-1.937
1.794
3.102
2.032
-0.788
-4.118
-5.748
-3.675
3.873
19.654
46.691
84.911
131.451
183.805
238.526
297.403
367.558
447.462
529.566
599.467
634.96
625.993
574.012
486.004
377.973
263.229
152.573
60.674
-2.217
-31.757
-31.71
-16.831
-1.188
7.187
7.263
5.551
6.292
9.492
13.377
14.172
10.56
4.04
-3.861
-11.406
-17.126
-20.661
-21.921
-20.884
-18.077
-14.135
-9.574
-5.001
-0.969
2.262
4.563
5.888
6.372
6.135
5.259
3.888
2.151
0.149
-2.019
-4.28
-6.57
-8.798
-10.869
-12.685
-14.179
-15.318
-16.089
-16.491
-16.533
-16.228
-15.603
-14.698
-13.55
-12.197
-10.676
-9.022
-7.278
-5.492
-3.707
-1.971
-0.315
1.242
2.688
4.019
5.235
6.338
7.335
8.24
9.06
9.805
10.479
11.088
11.642
12.149
12.62
13.067
13.499
13.922
14.347
14.779
15.226
15.692
16.182
16.702
17.256
17.853
18.498
19.2
19.968
20.808
21.73
22.743
23.852
25.063
26.381
27.81
29.351
31.007
32.777
34.66
36.658
38.77
40.998
43.343
45.805
48.382
51.077
53.888
56.813
59.847
62.982
66.213
69.535
72.944
76.44
80.019
83.67
87.383
91.146
94.942
98.75
102.543
106.28
109.932
113.478
116.904
120.205
123.378
126.414
129.312
132.068
134.683
137.16
139.499
141.693
143.748
145.68
147.523
149.331
151.137
152.947
154.76
156.555
158.303
159.975
161.521
162.879
163.994
164.818
165.314
165.464
165.232
164.568
163.409
161.669
159.291
156.249
152.532
148.144
143.114
137.478
131.305
124.696
117.732
110.484
103.007
95.337
87.528
79.645
71.761
63.961
56.314
48.87
41.673
34.759
28.145
21.833
15.803
10.003
4.402
-1.018
-6.266
-11.335
-16.226
-20.949
-25.511
-29.917
-34.176
-38.29
-42.262
-46.1
-49.801
-53.354
-56.741
-59.928
-62.893
-65.627
-68.12
-70.374
-72.39
-74.17
-75.72
-77.052
-78.176
-79.102
-79.835
-80.382
-80.75
-80.952
-80.998
-80.906
-80.689
-80.358
-79.925
-79.402
-78.797
-78.119
-77.376
-76.571
-75.71
-74.798
-73.843
-72.851
-71.829
-70.781
-69.715
-68.636
-67.55
-66.461
-65.373
-64.289
-63.213
-62.146
-61.093
-60.053
-59.03
-58.025
-57.039
-56.075
-55.133
-54.216
-53.324
-52.457
-51.618
-50.807
-50.024
-49.27
-48.547
-47.854
-47.193
-46.565
-45.972
-45.414
-44.892
-44.408
-43.962
-43.556
-43.188
-42.861
-42.574
-42.327
-42.121
-41.955
-41.831
-41.748
-41.705
-41.704
-41.742
-41.82
-41.936
-42.09
-42.279
-42.503
-42.76
-43.047
-43.364
-43.707
-44.076
-44.467
-44.879
-45.309
-45.754
-46.213
-46.681
-47.157
-47.637
-48.118
-48.597
-49.072
-49.54
-49.998
-50.443
-50.873
-51.286
-51.679
-52.05
-52.398
-52.721
-53.017
-53.285
-53.525
-53.735
-53.916
-54.068
-54.19
-54.283
-54.349
-54.387
-54.398
-54.385
-54.347
-54.286
-54.205
-54.104
-53.985
-53.851
-53.703
-53.545
-53.377
-53.204
-53.026
-52.847
-52.668
-52.493
-52.324
-52.162
-52.01
-51.87
-51.744
-51.634
-51.541
-51.467
-51.413
-51.38
-51.367
-51.377
-51.408
-51.461
-51.536
-51.631
-51.748
-51.884
-52.04
-52.214
-52.405
-52.613
-52.836
-53.072
-53.321
-53.579
-53.846
-54.119
-54.397
-54.677
-54.957
-55.236
-55.512
-55.781
-56.043
-56.294
-56.534
-56.76
-56.971
-57.165
-57.34
-57.495
-57.63
-57.744
-57.835
-57.904
-57.95
-57.972
-57.971
-57.946
-57.897
-57.824
-57.727
-57.605
-57.46
-57.291
-57.098
-56.883
-56.646
-56.388
-56.109
-55.811
-55.495
-55.163
-54.814
-54.451
-54.076
-53.689
-53.292
-52.887
-52.475
-52.058
-51.637
-51.213
-50.789
-50.364
-49.941
-49.52
-49.103
-48.691
-48.285
-47.886
-47.497
-47.118
-46.753
-46.402
-46.069
-45.754
-45.461
-45.191
-44.945
-44.725
-44.533
-44.369
-44.234
-44.13
-44.058
-44.017
-44.009
-44.034
-44.092
-44.183
-44.307
-44.464
-44.653
-44.873
-45.124
-45.404
-45.713
-46.048
-46.409
-46.794
-47.199
-47.623
-48.06
-48.508
-48.961
-49.415
-49.862
-50.297
-50.713
-51.104
-51.464
-51.787
-52.067
-52.299
-52.48
-52.606
-52.672
-52.673
-52.604
-52.458
-52.23
-51.912
-51.5
-50.986
-50.366
-49.637
-48.797
-47.848
-46.79
-45.621
-44.34
-42.945
-41.436
-39.818
-38.097
-36.284
-34.395
-32.448
-30.473
-28.499
-26.549
-24.641
-22.785
-20.985
-19.244
-17.564
-15.942
-14.389
-12.911
-11.511
-10.196
-8.966
-7.81
-6.711
-5.633
-4.537
-3.402
-2.215
-0.974
0.297
1.574
2.826
4.009
5.104
6.1
6.986
7.765
8.432
8.966
9.347
9.539
9.495
9.192
8.616
7.762
6.662
5.347
3.857
2.257
0.564
-1.232
-3.143
-5.201
-7.426
-9.797
-12.306
-14.954
-17.727
-20.637
-23.695
-26.887
-30.246
-33.857
-37.742
-41.853
-45.997
-49.746
-52.642
-54.302
-54.307
-52.233
-47.905
-41.401
-33.174
-24.311
-15.997
-9.197
-4.901
-3.9
-6.296
-11.541
-18.263
-23.797
-25.154
-19.6
-4.164
23.66
65.204
120.694
188.708
265.535
346.521
426.795
500.189
560.43
602.427
621.668
616.883
591.136
546.293
484.073
406.307
312.319
209.351
110.971
29.585
-21.549
-41.096
-39.326
-25.918
-12.336
-3.526
3.599
9.58
15.051
19.62
20.041
15.679
7.84
-2.107
-11.932
-19.81
-25.216
-27.976
-28.127
-26.203
-22.831
-18.603
-14.257
-10.472
-7.545
-5.594
-4.632
-4.507
-5.107
-6.351
-8.091
-10.183
-12.519
-15.006
-17.579
-20.175
-22.702
-25.049
-27.111
-28.808
-30.105
-30.988
-31.454
-31.516
-31.187
-30.496
-29.484
-28.189
-26.652
-24.913
-23.009
-20.985
-18.893
-16.785
-14.714
-12.717
-10.819
-9.034
-7.371
-5.832
-4.415
-3.116
-1.923
-0.828
0.175
1.091
1.926
2.685
3.379
4.018
4.612
5.17
5.701
6.212
6.708
7.198
7.685
8.175
8.673
9.184
9.716
10.277
10.875
11.52
12.218
12.98
13.812
14.722
15.718
16.805
17.989
19.274
20.667
22.171
23.789
25.525
27.381
29.358
31.457
33.677
36.018
38.477
41.053
43.743
46.542
49.447
52.454
55.556
58.748
62.024
65.376
68.796
72.275
75.803
79.371
82.967
86.579
90.197
93.806
97.395
100.95
104.457
107.904
111.274
114.555
117.731
120.788
123.712
126.49
129.106
131.548
133.803
135.858
137.703
139.326
140.716
141.863
142.757
143.391
143.755
143.845
143.653
143.175
142.408
141.351
140.002
138.362
136.433
134.218
131.723
128.953
125.915
122.62
119.076
115.295
111.291
107.077
102.669
98.082
93.333
88.44
83.422
78.295
73.081
67.797
62.464
57.101
51.729
46.366
41.033
35.749
30.534
25.407
20.384
15.484
10.723
6.117
1.68
-2.575
-6.636
-10.491
-14.131
-17.548
-20.734
-23.686
-26.398
-28.87
-31.098
-33.085
-34.833
-36.343
-37.622
-38.673
-39.505
-40.124
-40.538
-40.758
-40.794
-40.655
-40.355
-39.904
-39.315
-38.602
-37.777
-36.854
-35.846
-34.767
-33.631
-32.45
-31.237
-30.005
-28.765
-27.528
-26.306
-25.108
-23.943
-22.819
-21.745
-20.726
-19.769
-18.878
-18.057
-17.31
-16.64
-16.047
-15.533
-15.098
-14.741
-14.463
-14.261
-14.133
-14.078
-14.091
-14.171
-14.314
-14.515
-14.771
-15.076
-15.427
-15.819
-16.248
-16.707
-17.194
-17.703
-18.231
-18.774
-19.327
-19.887
-20.452
-21.018
-21.582
-22.142
-22.695
-23.241
-23.777
-24.303
-24.818
-25.321
-25.811
-26.289
-26.754
-27.207
-27.646
-28.071
-28.483
-28.881
-29.266
-29.637
-29.994
-30.337
-30.666
-30.982
-31.283
-31.571
-31.843
-32.1
-32.342
-32.567
-32.775
-32.966
-33.139
-33.294
-33.429
-33.546
-33.642
-33.718
-33.772
-33.804
-33.813
-33.799
-33.76
-33.695
-33.606
-33.492
-33.353
-33.189
-33.002
-32.792
-32.561
-32.309
-32.037
-31.748
-31.443
-31.123
-30.792
-30.45
-30.101
-29.747
-29.391
-29.035
-28.681
-28.331
-27.987
-27.65
-27.323
-27.006
-26.701
-26.41
-26.134
-25.875
-25.633
-25.411
-25.208
-25.026
-24.865
-24.725
-24.606
-24.507
-24.428
-24.369
-24.329
-24.307
-24.302
-24.313
-24.338
-24.375
-24.423
-24.479
-24.541
-24.607
-24.674
-24.741
-24.806
-24.868
-24.925
-24.977
-25.022
-25.059
-25.088
-25.108
-25.117
-25.115
-25.101
-25.074
-25.034
-24.98
-24.913
-24.834
-24.741
-24.635
-24.517
-24.386
-24.242
-24.086
-23.917
-23.737
-23.545
-23.344
-23.133
-22.915
-22.691
-22.461
-22.227
-21.989
-21.749
-21.505
-21.259
-21.009
-20.758
-20.504
-20.248
-19.991
-19.734
-19.476
-19.219
-18.962
-18.706
-18.45
-18.195
-17.94
-17.686
-17.433
-17.181
-16.932
-16.687
-16.445
-16.207
-15.974
-15.746
-15.523
-15.305
-15.091
-14.88
-14.674
-14.473
-14.277
-14.087
-13.904
-13.73
-13.565
-13.41
-13.267
-13.135
-13.015
-12.907
-12.811
-12.729
-12.66
-12.605
-12.566
-12.543
-12.537
-12.548
-12.579
-12.627
-12.695
-12.782
-12.888
-13.015
-13.163
-13.334
-13.528
-13.747
-13.993
-14.267
-14.57
-14.902
-15.262
-15.651
-16.067
-16.508
-16.972
-17.457
-17.961
-18.484
-19.022
-19.575
-20.141
-20.719
-21.308
-21.907
-22.513
-23.122
-23.727
-24.326
-24.911
-25.476
-26.014
-26.518
-26.981
-27.396
-27.762
-28.072
-28.318
-28.49
-28.577
-28.567
-28.46
-28.251
-27.937
-27.522
-27.012
-26.421
-25.775
-25.087
-24.366
-23.614
-22.823
-21.988
-21.109
-20.182
-19.203
-18.17
-17.073
-15.91
-14.683
-13.383
-11.992
-10.476
-8.784
-6.887
-4.781
-2.475
0.004
2.619
5.336
8.102
10.854
13.534
16.09
18.479
20.671
22.618
24.259
25.518
26.301
26.542
26.214
25.309
23.85
21.876
19.436
16.605
13.479
10.144
6.672
3.121
-0.456
-3.994
-7.417
-10.636
-13.556
-16.113
-18.276
-20.053
-21.494
-22.663
-23.631
-24.474
-25.284
-26.162
-27.203
-28.494
-30.117
-32.127
-34.614
-37.745
-41.595
-46.106
-51.069
-56.016
-60.455
-64.051
-66.411
-67.049
-65.744
-62.555
-57.981
-53.239
-49.486
-47.409
-47.616
-50.6
-56.354
-64.322
-73.008
-79.533
-80.942
-75.006
-59.533
-32.372
8.065
62.579
129.202
202.562
277.438
350.467
422.053
494.289
564.666
624.646
660.206
659.213
618.092
542.525
444.331
333.917
220.412
112.213
19.165
-46.56
-79.597
-83.732
-70.562
-54.526
-43.993
-39.676
-37.552
-34.416
-30.313
-27.404
-28.594
-34.414
-43.262
-53.398
-62.85
-70.154
-74.919
-76.978
-76.422
-73.877
-70.017
-65.46
-60.934
-57.026
-54.007
-52.013
-51.038
-50.919
-51.535
-52.771
-54.467
-56.485
-58.715
-61.061
-63.459
-65.841
-68.109
-70.159
-71.888
-73.223
-74.133
-74.603
-74.636
-74.249
-73.466
-72.322
-70.868
-69.147
-67.204
-65.084
-62.826
-60.477
-58.09
-55.715
-53.402
-51.189
-49.097
-47.14
-45.324
-43.65
-42.114
-40.709
-39.42
-38.238
-37.154
-36.16
-35.25
-34.415
-33.644
-32.926
-32.25
-31.604
-30.98
-30.37
-29.765
-29.157
-28.54
-27.907
-27.253
-26.571
-25.852
-25.089
-24.272
-23.393
-22.445
-21.418
-20.307
-19.103
-17.802
-16.397
-14.884
-13.26
-11.522
-9.665
-7.69
-5.593
-3.375
-1.035
1.425
4.005
6.702
9.515
12.44
15.472
18.609
21.845
25.174
28.592
32.091
35.664
39.305
43.004
46.755
50.546
54.37
58.215
62.071
65.928
69.773
73.595
77.382
81.121
84.8
88.406
91.926
95.348
98.658
101.843
104.89
107.788
110.523
113.083
115.457
117.632
119.598
121.345
122.862
124.14
125.17
125.944
126.455
126.697
126.665
126.354
125.762
124.885
123.724
122.277
120.548
118.539
116.253
113.697
110.878
107.802
104.481
100.925
97.145
93.154
88.967
84.599
80.065
75.382
70.566
65.635
60.608
55.502
50.337
45.132
39.906
34.678
29.466
24.29
19.167
14.116
9.154
4.298
-0.437
-5.034
-9.48
-13.76
-17.863
-21.777
-25.492
-28.998
-32.29
-35.36
-38.205
-40.82
-43.204
-45.357
-47.278
-48.971
-50.437
-51.681
-52.709
-53.525
-54.138
-54.556
-54.786
-54.839
-54.725
-54.454
-54.036
-53.484
-52.81
-52.024
-51.139
-50.167
-49.121
-48.012
-46.853
-45.655
-44.43
-43.19
-41.944
-40.704
-39.479
-38.277
-37.106
-35.975
-34.889
-33.856
-32.879
-31.965
-31.116
-30.336
-29.627
-28.992
-28.432
-27.946
-27.536
-27.201
-26.939
-26.75
-26.632
-26.582
-26.598
-26.677
-26.817
-27.013
-27.261
-27.559
-27.901
-28.284
-28.703
-29.153
-29.63
-30.13
-30.649
-31.182
-31.725
-32.275
-32.828
-33.381
-33.931
-34.474
-35.008
-35.531
-36.04
-36.534
-37.01
-37.467
-37.904
-38.32
-38.714
-39.085
-39.433
-39.757
-40.057
-40.333
-40.586
-40.814
-41.019
-41.202
-41.363
-41.503
-41.622
-41.723
-41.807
-41.873
-41.925
-41.963
-41.987
-42.001
-42.004
-41.999
-41.986
-41.966
-41.94
-41.91
-41.876
-41.839
-41.8
-41.76
-41.72
-41.679
-41.639
-41.6
-41.562
-41.525
-41.491
-41.458
-41.428
-41.4
-41.374
-41.35
-41.328
-41.308
-41.288
-41.269
-41.249
-41.229
-41.206
-41.18
-41.151
-41.118
-41.078
-41.033
-40.98
-40.92
-40.85
-40.77
-40.679
-40.576
-40.461
-40.333
-40.19
-40.033
-39.861
-39.673
-39.469
-39.249
-39.013
-38.759
-38.489
-38.202
-37.898
-37.578
-37.241
-36.889
-36.521
-36.14
-35.746
-35.34
-34.924
-34.498
-34.065
-33.625
-33.181
-32.732
-32.282
-31.832
-31.382
-30.936
-30.495
-30.059
-29.632
-29.214
-28.807
-28.413
-28.031
-27.664
-27.313
-26.979
-26.662
-26.363
-26.084
-25.824
-25.584
-25.365
-25.165
-24.986
-24.826
-24.684
-24.56
-24.452
-24.36
-24.281
-24.215
-24.161
-24.116
-24.079
-24.048
-24.022
-24
-23.978
-23.957
-23.933
-23.906
-23.874
-23.835
-23.789
-23.734
-23.669
-23.593
-23.506
-23.406
-23.294
-23.168
-23.029
-22.877
-22.711
-22.533
-22.343
-22.142
-21.933
-21.715
-21.492
-21.265
-21.037
-20.808
-20.581
-20.359
-20.144
-19.937
-19.741
-19.558
-19.391
-19.24
-19.109
-18.999
-18.911
-18.846
-18.807
-18.793
-18.805
-18.844
-18.91
-19.004
-19.123
-19.269
-19.44
-19.634
-19.85
-20.085
-20.337
-20.602
-20.877
-21.158
-21.441
-21.721
-21.994
-22.255
-22.498
-22.72
-22.915
-23.077
-23.202
-23.283
-23.317
-23.298
-23.221
-23.082
-22.877
-22.601
-22.251
-21.823
-21.317
-20.728
-20.055
-19.298
-18.456
-17.529
-16.519
-15.427
-14.258
-13.015
-11.704
-10.332
-8.906
-7.434
-5.924
-4.388
-2.833
-1.269
0.293
1.843
3.371
4.864
6.312
7.704
9.026
10.268
11.416
12.457
13.383
14.184
14.855
15.388
15.775
16.004
16.067
15.958
15.674
15.212
14.571
13.754
12.774
11.653
10.42
9.099
7.714
6.28
4.818
3.349
1.9
0.503
-0.817
-2.04
-3.15
-4.129
-4.968
-5.663
-6.243
-6.776
-7.331
-7.973
-8.756
-9.702
-10.848
-12.249
-13.958
-16.027
-18.506
-21.405
-24.758
-28.667
-33.115
-37.977
-43.028
-47.813
-51.889
-54.954
-56.567
-56.212
-53.782
-49.405
-43.498
-37.084
-31.003
-25.8
-22.474
-21.949
-24.18
-28.513
-33.605
-37.099
-36.823
-30.723
-15.737
11.41
50.944
100.299
157.005
217.286
282.016
356.643
438.324
519.42
586.55
619.498
609.638
557.55
467.955
354.897
230.82
108.367
5.832
-63.996
-95.334
-92.226
-71.304
-48.239
-32.245
-25.096
-20.438
-13.964
-5.739
2.17
5.673
3.32
-3.281
-12.161
-21.024
-28.13
-32.982
-35.408
-35.426
-33.543
-30.392
-26.588
-22.814
-19.65
-17.36
-16.03
-15.654
-16.073
-17.145
-18.761
-20.769
-23.024
-25.43
-27.904
-30.373
-32.775
-35.023
-37.016
-38.687
-39.992
-40.912
-41.45
-41.613
-41.414
-40.881
-40.044
-38.939
-37.599
-36.054
-34.339
-32.494
-30.565
-28.601
-26.65
-24.75
-22.927
-21.197
-19.571
-18.052
-16.64
-15.331
-14.116
-12.989
-11.948
-10.989
-10.11
-9.308
-8.575
-7.906
-7.291
-6.725
-6.201
-5.713
-5.254
-4.82
-4.405
-4.005
-3.615
-3.23
-2.84
-2.44
-2.018
-1.566
-1.074
-0.532
0.07
0.741
1.492
2.33
3.264
4.3
5.445
6.707
8.092
9.604
11.249
13.032
14.956
17.026
19.243
21.61
24.126
26.794
29.61
32.575
35.684
38.935
42.322
45.842
49.486
53.249
57.121
61.093
65.153
69.292
73.495
77.749
82.04
86.354
90.673
94.985
99.271
103.517
107.705
111.819
115.843
119.759
123.55
127.2
130.692
134.008
137.134
140.053
142.751
145.214
147.427
149.377
151.054
152.446
153.543
154.337
154.821
154.989
154.836
154.36
153.56
152.437
150.994
149.233
147.159
144.781
142.106
139.142
135.901
132.394
128.635
124.637
120.416
115.987
111.369
106.578
101.633
96.553
91.358
86.067
80.701
75.281
69.825
64.356
58.892
53.455
48.062
42.734
37.488
32.341
27.31
22.409
17.652
13.053
8.622
4.371
0.307
-3.559
-7.223
-10.678
-13.921
-16.947
-19.755
-22.345
-24.716
-26.87
-28.811
-30.541
-32.064
-33.387
-34.516
-35.459
-36.222
-36.815
-37.247
-37.529
-37.67
-37.681
-37.574
-37.358
-37.047
-36.65
-36.178
-35.643
-35.055
-34.423
-33.759
-33.071
-32.369
-31.661
-30.956
-30.261
-29.583
-28.931
-28.309
-27.723
-27.179
-26.681
-26.234
-25.84
-25.503
-25.225
-25.008
-24.852
-24.759
-24.727
-24.758
-24.849
-24.999
-25.207
-25.469
-25.785
-26.15
-26.562
-27.017
-27.513
-28.045
-28.61
-29.205
-29.826
-30.469
-31.13
-31.805
-32.491
-33.184
-33.881
-34.577
-35.27
-35.955
-36.631
-37.294
-37.941
-38.569
-39.178
-39.764
-40.326
-40.863
-41.373
-41.856
-42.311
-42.737
-43.134
-43.503
-43.844
-44.156
-44.44
-44.698
-44.929
-45.135
-45.316
-45.474
-45.609
-45.723
-45.817
-45.892
-45.95
-45.991
-46.018
-46.031
-46.032
-46.023
-46.003
-45.975
-45.94
-45.898
-45.85
-45.796
-45.738
-45.675
-45.607
-45.536
-45.46
-45.379
-45.295
-45.206
-45.112
-45.013
-44.909
-44.799
-44.684
-44.562
-44.434
-44.3
-44.16
-44.013
-43.86
-43.702
-43.537
-43.366
-43.19
-43.009
-42.822
-42.63
-42.435
-42.235
-42.033
-41.828
-41.622
-41.416
-41.21
-41.005
-40.804
-40.606
-40.413
-40.226
-40.047
-39.877
-39.717
-39.568
-39.432
-39.31
-39.203
-39.112
-39.037
-38.979
-38.94
-38.918
-38.915
-38.93
-38.963
-39.015
-39.084
-39.172
-39.278
-39.401
-39.54
-39.696
-39.867
-40.053
-40.252
-40.465
-40.689
-40.924
-41.17
-41.424
-41.686
-41.954
-42.227
-42.503
-42.781
-43.059
-43.334
-43.606
-43.873
-44.132
-44.382
-44.622
-44.851
-45.068
-45.271
-45.46
-45.633
-45.79
-45.931
-46.054
-46.16
-46.248
-46.319
-46.371
-46.405
-46.421
-46.419
-46.399
-46.361
-46.306
-46.234
-46.144
-46.039
-45.92
-45.786
-45.641
-45.486
-45.324
-45.157
-44.987
-44.817
-44.649
-44.485
-44.329
-44.181
-44.044
-43.921
-43.812
-43.721
-43.648
-43.596
-43.565
-43.557
-43.572
-43.611
-43.675
-43.764
-43.878
-44.016
-44.179
-44.367
-44.579
-44.814
-45.07
-45.346
-45.638
-45.944
-46.258
-46.577
-46.893
-47.202
-47.497
-47.774
-48.027
-48.249
-48.437
-48.586
-48.691
-48.748
-48.752
-48.694
-48.57
-48.371
-48.093
-47.729
-47.27
-46.712
-46.049
-45.282
-44.408
-43.426
-42.331
-41.116
-39.78
-38.326
-36.761
-35.091
-33.325
-31.475
-29.564
-27.623
-25.682
-23.762
-21.877
-20.029
-18.228
-16.48
-14.796
-13.184
-11.639
-10.152
-8.721
-7.349
-6.036
-4.773
-3.528
-2.251
-0.903
0.531
2.046
3.624
5.253
6.916
8.583
10.213
11.745
13.129
14.341
15.372
16.211
16.833
17.185
17.198
16.826
16.054
14.891
13.357
11.467
9.251
6.766
4.088
1.309
-1.51
-4.352
-7.223
-10.14
-13.105
-16.102
-19.094
-22.053
-24.976
-27.885
-30.809
-33.773
-36.812
-39.955
-43.267
-46.873
-50.79
-54.886
-58.897
-62.375
-64.896
-66.173
-65.887
-63.612
-59.149
-52.595
-44.415
-35.638
-27.263
-19.917
-14.29
-11.078
-10.434
-11.878
-14.101
-14.738
-11.484
-2.249
15.574
44.484
86.405
140.273
201.51
265.72
328.931
392.821
464.244
542.318
620.957
685.341
710.573
684.298
604.592
480.151
337.431
200.14
88.241
16.266
-17.738
-23.024
-14.517
-6.538
-4.459
-7.8
-10.804
-9.534
-5.08
-0.087
1.612
-1.66
-8.629
-17.572
-26.82
-34.924
-41.032
-44.762
-45.918
-44.74
-41.855
-37.888
-33.412
-29.05
-25.311
-22.459
-20.642
-19.838
-19.892
-20.699
-22.137
-24.055
-26.317
-28.796
-31.393
-34.039
-36.653
-39.136
-41.381
-43.285
-44.78
-45.84
-46.446
-46.596
-46.307
-45.597
-44.508
-43.092
-41.395
-39.467
-37.354
-35.1
-32.759
-30.385
-28.031
-25.748
-23.573
-21.527
-19.628
-17.886
-16.303
-14.88
-13.611
-12.484
-11.495
-10.636
-9.902
-9.287
-8.785
-8.383
-8.073
-7.844
-7.684
-7.586
-7.539
-7.536
-7.566
-7.621
-7.692
-7.771
-7.847
-7.908
-7.943
-7.938
-7.881
-7.759
-7.561
-7.273
-6.885
-6.386
-5.767
-5.019
-4.134
-3.102
-1.919
-0.576
0.931
2.606
4.454
6.475
8.671
11.043
13.589
16.307
19.194
22.246
25.457
28.822
32.332
35.979
39.754
43.645
47.641
51.729
55.896
60.126
64.405
68.718
73.047
77.375
81.687
85.965
90.192
94.35
98.421
102.388
106.234
109.941
113.493
116.873
120.065
123.055
125.828
128.371
130.67
132.715
134.494
135.998
137.218
138.147
138.779
139.108
139.133
138.85
138.26
137.364
136.164
134.664
132.871
130.79
128.429
125.798
122.907
119.767
116.39
112.791
108.983
104.983
100.805
96.469
91.989
87.386
82.676
77.877
73.009
68.088
63.135
58.166
53.199
48.253
43.343
38.486
33.699
28.996
24.392
19.9
15.532
11.299
7.212
3.28
-0.488
-4.086
-7.508
-10.747
-13.801
-16.665
-19.337
-21.817
-24.105
-26.202
-28.11
-29.831
-31.37
-32.732
-33.92
-34.942
-35.804
-36.512
-37.074
-37.497
-37.789
-37.959
-38.016
-37.967
-37.822
-37.589
-37.277
-36.896
-36.452
-35.955
-35.411
-34.83
-34.217
-33.581
-32.928
-32.264
-31.597
-30.931
-30.272
-29.626
-28.996
-28.388
-27.803
-27.246
-26.718
-26.223
-25.76
-25.333
-24.94
-24.584
-24.265
-23.982
-23.736
-23.525
-23.349
-23.207
-23.096
-23.017
-22.965
-22.941
-22.942
-22.966
-23.012
-23.077
-23.16
-23.258
-23.371
-23.494
-23.627
-23.768
-23.913
-24.061
-24.211
-24.36
-24.507
-24.651
-24.791
-24.927
-25.058
-25.183
-25.301
-25.414
-25.52
-25.621
-25.715
-25.803
-25.887
-25.966
-26.043
-26.117
-26.19
-26.264
-26.339
-26.416
-26.496
-26.58
-26.669
-26.764
-26.865
-26.974
-27.092
-27.219
-27.358
-27.509
-27.672
-27.849
-28.04
-28.244
-28.463
-28.696
-28.943
-29.204
-29.477
-29.763
-30.062
-30.372
-30.692
-31.021
-31.359
-31.703
-32.053
-32.405
-32.76
-33.116
-33.471
-33.824
-34.174
-34.52
-34.861
-35.195
-35.523
-35.842
-36.152
-36.452
-36.74
-37.016
-37.279
-37.529
-37.765
-37.987
-38.195
-38.388
-38.567
-38.732
-38.884
-39.021
-39.146
-39.258
-39.358
-39.447
-39.527
-39.597
-39.658
-39.713
-39.761
-39.804
-39.841
-39.874
-39.903
-39.928
-39.95
-39.968
-39.985
-39.998
-40.01
-40.021
-40.03
-40.039
-40.046
-40.053
-40.06
-40.065
-40.07
-40.074
-40.078
-40.08
-40.081
-40.08
-40.077
-40.072
-40.063
-40.051
-40.035
-40.015
-39.99
-39.96
-39.925
-39.886
-39.843
-39.796
-39.745
-39.692
-39.637
-39.581
-39.523
-39.465
-39.407
-39.349
-39.292
-39.235
-39.18
-39.126
-39.074
-39.024
-38.975
-38.928
-38.884
-38.842
-38.803
-38.767
-38.735
-38.706
-38.683
-38.664
-38.65
-38.641
-38.637
-38.638
-38.644
-38.652
-38.664
-38.677
-38.692
-38.705
-38.718
-38.728
-38.735
-38.737
-38.735
-38.727
-38.715
-38.697
-38.674
-38.647
-38.617
-38.585
-38.551
-38.517
-38.483
-38.45
-38.418
-38.388
-38.36
-38.336
-38.316
-38.301
-38.291
-38.288
-38.293
-38.307
-38.331
-38.367
-38.415
-38.477
-38.554
-38.649
-38.762
-38.895
-39.05
-39.225
-39.422
-39.641
-39.879
-40.135
-40.406
-40.687
-40.975
-41.267
-41.556
-41.84
-42.115
-42.376
-42.622
-42.849
-43.055
-43.234
-43.382
-43.492
-43.557
-43.57
-43.525
-43.412
-43.227
-42.963
-42.616
-42.184
-41.663
-41.048
-40.334
-39.51
-38.571
-37.517
-36.347
-35.064
-33.676
-32.197
-30.65
-29.061
-27.449
-25.828
-24.207
-22.585
-20.965
-19.347
-17.728
-16.117
-14.515
-12.923
-11.348
-9.795
-8.253
-6.71
-5.132
-3.48
-1.733
0.113
2.053
4.059
6.103
8.148
10.133
12.012
13.739
15.265
16.567
17.618
18.379
18.811
18.857
18.457
17.588
16.249
14.445
12.217
9.609
6.685
3.55
0.303
-2.96
-6.145
-9.195
-12.056
-14.667
-16.989
-18.981
-20.612
-21.899
-22.858
-23.521
-23.956
-24.238
-24.47
-24.795
-25.333
-26.214
-27.615
-29.619
-32.202
-35.237
-38.436
-41.494
-44.186
-46.226
-47.21
-46.851
-45.11
-42.354
-39.329
-36.8
-35.336
-35.226
-36.842
-40.808
-47.049
-54.321
-61.105
-63.99
-59.474
-47.137
-24.978
6.343
42.953
86.456
137.21
198.067
277.936
376.418
485.821
591.156
667.197
697.873
681.488
626.585
551.973
470.011
381.957
287.484
187.254
91.541
16.983
-26.53
-39.097
-32.199
-20.434
-12.384
-9.696
-8.323
-5.326
-1.138
2.21
1.71
-3.483
-12.005
-22.223
-32.172
-40.223
-45.785
-48.665
-48.912
-47.059
-43.722
-39.483
-35.069
-31.151
-28.076
-25.992
-24.915
-24.696
-25.221
-26.411
-28.117
-30.189
-32.506
-34.963
-37.489
-40.029
-42.487
-44.753
-46.713
-48.285
-49.429
-50.135
-50.403
-50.245
-49.675
-48.726
-47.442
-45.871
-44.054
-42.039
-39.861
-37.57
-35.22
-32.866
-30.563
-28.354
-26.263
-24.306
-22.493
-20.827
-19.308
-17.93
-16.682
-15.552
-14.536
-13.627
-12.821
-12.11
-11.485
-10.933
-10.445
-10.01
-9.618
-9.263
-8.935
-8.626
-8.329
-8.038
-7.745
-7.444
-7.125
-6.778
-6.395
-5.964
-5.478
-4.927
-4.303
-3.598
-2.805
-1.916
-0.927
0.169
1.376
2.698
4.139
5.702
7.388
9.199
11.137
13.202
15.394
17.713
20.159
22.731
25.425
28.24
31.172
34.215
37.364
40.613
43.954
47.379
50.878
54.443
58.064
61.732
65.438
69.173
72.926
76.687
80.448
84.194
87.915
91.596
95.223
98.782
102.257
105.636
108.905
112.051
115.061
117.926
120.634
123.171
125.522
127.669
129.597
131.295
132.755
133.973
134.952
135.697
136.217
136.523
136.622
136.516
136.199
135.659
134.882
133.853
132.566
131.026
129.236
127.196
124.905
122.359
119.542
116.434
113.009
109.234
105.091
100.578
95.712
90.534
85.095
79.459
73.677
67.79
61.834
55.846
49.861
43.919
38.068
32.364
26.875
21.678
16.838
12.397
8.373
4.754
1.507
-1.418
-4.063
-6.458
-8.63
-10.595
-12.37
-13.968
-15.408
-16.714
-17.921
-19.08
-20.234
-21.414
-22.631
-23.876
-25.122
-26.329
-27.463
-28.495
-29.404
-30.18
-30.819
-31.32
-31.686
-31.922
-32.027
-31.987
-31.794
-31.439
-30.926
-30.267
-29.48
-28.594
-27.634
-26.623
-25.585
-24.532
-23.478
-22.431
-21.393
-20.368
-19.357
-18.368
-17.409
-16.488
-15.612
-14.784
-14.007
-13.282
-12.61
-11.99
-11.421
-10.905
-10.441
-10.032
-9.679
-9.385
-9.154
-8.986
-8.883
-8.843
-8.866
-8.95
-9.093
-9.293
-9.546
-9.849
-10.201
-10.597
-11.035
-11.512
-12.024
-12.57
-13.146
-13.748
-14.375
-15.023
-15.689
-16.37
-17.063
-17.766
-18.475
-19.188
-19.903
-20.617
-21.326
-22.03
-22.726
-23.412
-24.085
-24.744
-25.386
-26.011
-26.616
-27.201
-27.765
-28.309
-28.831
-29.333
-29.815
-30.277
-30.72
-31.144
-31.55
-31.938
-32.308
-32.662
-32.999
-33.32
-33.625
-33.915
-34.191
-34.453
-34.701
-34.936
-35.158
-35.369
-35.569
-35.758
-35.938
-36.11
-36.275
-36.433
-36.585
-36.734
-36.878
-37.02
-37.159
-37.296
-37.43
-37.563
-37.692
-37.819
-37.944
-38.066
-38.185
-38.3
-38.413
-38.523
-38.63
-38.734
-38.835
-38.934
-39.03
-39.124
-39.217
-39.307
-39.396
-39.484
-39.57
-39.655
-39.737
-39.816
-39.892
-39.964
-40.031
-40.093
-40.15
-40.2
-40.245
-40.284
-40.318
-40.346
-40.37
-40.389
-40.404
-40.417
-40.427
-40.435
-40.443
-40.451
-40.46
-40.471
-40.484
-40.501
-40.521
-40.546
-40.575
-40.608
-40.646
-40.689
-40.738
-40.794
-40.858
-40.929
-41.01
-41.101
-41.204
-41.317
-41.443
-41.58
-41.729
-41.89
-42.062
-42.244
-42.435
-42.635
-42.842
-43.055
-43.272
-43.491
-43.709
-43.925
-44.136
-44.339
-44.534
-44.717
-44.889
-45.047
-45.191
-45.321
-45.435
-45.533
-45.615
-45.679
-45.724
-45.75
-45.756
-45.743
-45.708
-45.654
-45.581
-45.49
-45.382
-45.259
-45.122
-44.974
-44.817
-44.652
-44.484
-44.316
-44.15
-43.992
-43.845
-43.713
-43.601
-43.513
-43.451
-43.418
-43.415
-43.442
-43.499
-43.585
-43.701
-43.845
-44.016
-44.215
-44.439
-44.69
-44.966
-45.266
-45.586
-45.922
-46.269
-46.621
-46.972
-47.313
-47.637
-47.935
-48.199
-48.421
-48.595
-48.711
-48.759
-48.724
-48.594
-48.362
-48.024
-47.578
-47.024
-46.366
-45.609
-44.772
-43.872
-42.923
-41.94
-40.922
-39.87
-38.789
-37.681
-36.552
-35.403
-34.214
-32.967
-31.648
-30.241
-28.731
-27.096
-25.292
-23.285
-21.052
-18.581
-15.882
-12.979
-9.888
-6.634
-3.255
0.196
3.636
6.976
10.15
13.093
15.746
18.048
19.91
21.259
22.061
22.286
21.939
21.037
19.587
17.612
15.168
12.325
9.192
5.888
2.49
-0.929
-4.305
-7.588
-10.699
-13.584
-16.246
-18.693
-20.95
-23.068
-25.061
-26.955
-28.81
-30.665
-32.6
-34.705
-37.018
-39.58
-42.418
-45.5
-48.852
-52.508
-56.339
-60.142
-63.603
-66.222
-67.591
-67.387
-65.193
-60.715
-53.938
-45.113
-34.958
-24.604
-15.149
-7.589
-2.726
-0.802
-1.415
-3.497
-5.269
-4.237
2.672
18.544
45.871
84.459
131.351
183.565
238.835
299.063
367.814
442.118
513.053
564.732
579.486
550.828
481.25
379.798
262.305
141.886
31.927
-51.398
-100.291
-113.837
-99.996
-76.251
-54.388
-39.443
-30.735
-21.741
-10.231
2.104
12.72
17.588
15.423
7.726
-3.61
-15.905
-27.105
-36.46
-43.451
-47.713
-49.098
-47.721
-44.257
-39.889
-35.616
-31.937
-29.063
-27.052
-26.02
-26.075
-27.074
-28.637
-30.405
-32.171
-33.872
-35.521
-37.073
-38.418
-39.475
-40.226
-40.69
-40.882
-40.799
-40.415
-39.713
-38.709
-37.44
-35.946
-34.263
-32.422
-30.448
-28.376
-26.245
-24.101
-21.989
-19.945
-17.992
-16.149
-14.428
-12.838
-11.387
-10.075
-8.895
-7.838
-6.898
-6.07
-5.352
-4.741
-4.229
-3.806
-3.463
-3.192
-2.986
-2.836
-2.735
-2.674
-2.645
-2.639
-2.651
-2.672
-2.692
-2.7
-2.685
-2.634
-2.536
-2.38
-2.152
-1.841
-1.435
-0.925
-0.299
0.452
1.338
2.366
3.545
4.88
6.379
8.047
9.886
11.9
14.091
16.46
19.007
21.732
24.631
27.703
30.943
34.347
37.908
41.618
45.47
49.454
53.559
57.773
62.084
66.477
70.937
75.451
80
84.567
89.136
93.688
98.204
102.666
107.054
111.349
115.532
119.584
123.486
127.221
130.77
134.115
137.241
140.132
142.771
145.146
147.243
149.049
150.553
151.745
152.617
153.162
153.374
153.249
152.784
151.979
150.834
149.352
147.536
145.391
142.925
140.147
137.065
133.692
130.04
126.123
121.957
117.559
112.945
108.134
103.145
97.998
92.714
87.312
81.814
76.24
70.613
64.952
59.28
53.617
47.984
42.399
36.884
31.456
26.133
20.931
15.867
10.955
6.208
1.639
-2.74
-6.921
-10.892
-14.648
-18.181
-21.487
-24.56
-27.399
-30.003
-32.371
-34.505
-36.407
-38.08
-39.531
-40.763
-41.783
-42.598
-43.216
-43.646
-43.896
-43.977
-43.899
-43.672
-43.308
-42.816
-42.21
-41.499
-40.694
-39.806
-38.846
-37.823
-36.749
-35.633
-34.485
-33.314
-32.13
-30.942
-29.759
-28.589
-27.439
-26.315
-25.225
-24.174
-23.166
-22.207
-21.299
-20.446
-19.652
-18.917
-18.245
-17.636
-17.09
-16.609
-16.19
-15.834
-15.539
-15.305
-15.128
-15.008
-14.944
-14.933
-14.974
-15.065
-15.204
-15.388
-15.614
-15.88
-16.183
-16.519
-16.885
-17.278
-17.694
-18.13
-18.584
-19.053
-19.535
-20.026
-20.526
-21.03
-21.538
-22.047
-22.556
-23.063
-23.568
-24.07
-24.569
-25.064
-25.554
-26.04
-26.522
-26.998
-27.469
-27.932
-28.388
-28.836
-29.275
-29.704
-30.124
-30.534
-30.934
-31.325
-31.706
-32.079
-32.442
-32.796
-33.141
-33.477
-33.803
-34.12
-34.428
-34.726
-35.015
-35.294
-35.562
-35.82
-36.067
-36.3
-36.52
-36.724
-36.912
-37.083
-37.237
-37.372
-37.49
-37.59
-37.672
-37.738
-37.787
-37.819
-37.836
-37.837
-37.823
-37.795
-37.753
-37.697
-37.63
-37.552
-37.464
-37.366
-37.261
-37.149
-37.03
-36.906
-36.777
-36.644
-36.51
-36.374
-36.24
-36.108
-35.981
-35.86
-35.746
-35.641
-35.546
-35.461
-35.387
-35.325
-35.273
-35.233
-35.204
-35.187
-35.179
-35.183
-35.196
-35.218
-35.249
-35.286
-35.33
-35.378
-35.43
-35.485
-35.542
-35.601
-35.662
-35.724
-35.787
-35.85
-35.914
-35.977
-36.039
-36.099
-36.157
-36.213
-36.265
-36.315
-36.363
-36.408
-36.453
-36.497
-36.542
-36.589
-36.64
-36.695
-36.757
-36.828
-36.909
-37.003
-37.112
-37.238
-37.383
-37.549
-37.738
-37.951
-38.188
-38.449
-38.733
-39.04
-39.367
-39.714
-40.079
-40.46
-40.855
-41.263
-41.683
-42.113
-42.551
-42.996
-43.443
-43.89
-44.33
-44.76
-45.172
-45.561
-45.919
-46.238
-46.51
-46.729
-46.888
-46.977
-46.989
-46.909
-46.73
-46.447
-46.058
-45.563
-44.966
-44.274
-43.497
-42.652
-41.757
-40.825
-39.867
-38.891
-37.902
-36.903
-35.902
-34.906
-33.915
-32.92
-31.907
-30.854
-29.738
-28.538
-27.22
-25.741
-24.068
-22.173
-20.042
-17.675
-15.08
-12.277
-9.29
-6.145
-2.889
0.417
3.704
6.887
9.885
12.625
15.016
16.959
18.372
19.184
19.343
18.825
17.618
15.734
13.207
10.079
6.42
2.314
-2.143
-6.834
-11.648
-16.482
-21.213
-25.72
-29.896
-33.643
-36.885
-39.573
-41.677
-43.214
-44.231
-44.791
-44.965
-44.815
-44.42
-43.892
-43.333
-42.846
-42.544
-42.505
-42.848
-43.744
-45.235
-47.255
-49.618
-51.916
-53.751
-54.825
-54.666
-52.766
-49.013
-43.519
-36.841
-30.118
-24.217
-19.787
-17.774
-18.891
-22.965
-29.313
-36.313
-41.114
-41.179
-34.003
-16.173
13.802
54.409
104.013
159.889
222.724
298.947
389.591
489.039
581.431
641.999
656.922
624.335
554.711
467.449
372.065
273.247
176.046
86.39
17.186
-21.861
-32.51
-25.954
-16.118
-12.262
-15.33
-19.151
-19.614
-16.586
-11.417
-7.538
-6.481
-7.364
-9.568
-12.347
-14.759
-16.701
-18.854
-21.563
-25.11
-29.579
-34.332
-38.913
-43.345
-47.376
-50.356
-51.893
-51.767
-50.134
-47.793
-45.298
-42.847
-40.694
-39.07
-38.111
-37.928
-38.393
-39.087
-39.736
-40.232
-40.497
-40.575
-40.521
-40.33
-40.05
-39.757
-39.463
-39.149
-38.795
-38.355
-37.811
-37.178
-36.461
-35.682
-34.875
-34.057
-33.244
-32.429
-31.572
-30.642
-29.63
-28.539
-27.399
-26.251
-25.118
-24.023
-22.992
-22.034
-21.159
-20.367
-19.643
-18.971
-18.346
-17.769
-17.254
-16.814
-16.446
-16.14
-15.879
-15.635
-15.389
-15.119
-14.8
-14.413
-13.942
-13.373
-12.703
-11.93
-11.047
-10.046
-8.918
-7.65
-6.236
-4.673
-2.956
-1.084
0.945
3.129
5.465
7.952
10.586
13.367
16.293
19.363
22.574
25.923
29.403
33.008
36.731
40.563
44.494
48.511
52.604
56.76
60.967
65.212
69.479
73.756
78.028
82.278
86.491
90.651
94.743
98.75
102.656
106.446
110.103
113.611
116.957
120.123
123.096
125.861
128.405
130.714
132.776
134.58
136.116
137.373
138.344
139.023
139.402
139.478
139.249
138.712
137.869
136.72
135.269
133.519
131.477
129.149
126.545
123.673
120.545
117.173
113.57
109.751
105.729
101.522
97.146
92.619
87.957
83.181
78.309
73.36
68.355
63.312
58.251
53.191
48.152
43.152
38.208
33.337
28.555
23.878
19.32
14.894
10.613
6.487
2.525
-1.264
-4.872
-8.294
-11.526
-14.563
-17.405
-20.049
-22.495
-24.746
-26.801
-28.666
-30.342
-31.836
-33.153
-34.298
-35.281
-36.107
-36.786
-37.327
-37.738
-38.029
-38.21
-38.291
-38.28
-38.188
-38.024
-37.798
-37.517
-37.191
-36.828
-36.436
-36.021
-35.59
-35.148
-34.702
-34.256
-33.815
-33.383
-32.962
-32.557
-32.171
-31.805
-31.462
-31.144
-30.852
-30.586
-30.348
-30.137
-29.954
-29.797
-29.668
-29.564
-29.486
-29.431
-29.398
-29.386
-29.394
-29.42
-29.462
-29.519
-29.59
-29.674
-29.769
-29.874
-29.989
-30.113
-30.245
-30.386
-30.534
-30.69
-30.852
-31.021
-31.195
-31.375
-31.559
-31.747
-31.938
-32.132
-32.328
-32.525
-32.723
-32.921
-33.118
-33.315
-33.51
-33.703
-33.894
-34.083
-34.27
-34.454
-34.635
-34.814
-34.99
-35.163
-35.334
-35.501
-35.665
-35.824
-35.979
-36.129
-36.274
-36.414
-36.547
-36.675
-36.797
-36.913
-37.024
-37.13
-37.231
-37.328
-37.422
-37.513
-37.601
-37.687
-37.772
-37.857
-37.941
-38.024
-38.108
-38.192
-38.277
-38.361
-38.445
-38.528
-38.61
-38.691
-38.769
-38.846
-38.92
-38.992
-39.062
-39.129
-39.194
-39.257
-39.318
-39.376
-39.432
-39.485
-39.534
-39.579
-39.62
-39.656
-39.687
-39.712
-39.73
-39.742
-39.746
-39.743
-39.732
-39.713
-39.686
-39.65
-39.608
-39.558
-39.502
-39.441
-39.375
-39.306
-39.235
-39.162
-39.088
-39.014
-38.939
-38.864
-38.789
-38.714
-38.639
-38.564
-38.49
-38.417
-38.345
-38.275
-38.207
-38.141
-38.077
-38.016
-37.958
-37.904
-37.853
-37.806
-37.765
-37.727
-37.695
-37.668
-37.644
-37.624
-37.607
-37.591
-37.574
-37.556
-37.535
-37.511
-37.481
-37.446
-37.406
-37.359
-37.306
-37.247
-37.181
-37.109
-37.03
-36.943
-36.85
-36.75
-36.643
-36.529
-36.409
-36.282
-36.148
-36.008
-35.86
-35.704
-35.54
-35.367
-35.186
-34.996
-34.798
-34.593
-34.383
-34.17
-33.955
-33.741
-33.53
-33.324
-33.126
-32.935
-32.755
-32.586
-32.43
-32.288
-32.161
-32.05
-31.956
-31.881
-31.826
-31.791
-31.776
-31.783
-31.812
-31.864
-31.939
-32.038
-32.164
-32.317
-32.499
-32.711
-32.955
-33.23
-33.537
-33.874
-34.24
-34.631
-35.044
-35.476
-35.92
-36.375
-36.836
-37.298
-37.759
-38.215
-38.662
-39.099
-39.521
-39.924
-40.302
-40.65
-40.962
-41.231
-41.452
-41.616
-41.717
-41.749
-41.706
-41.585
-41.38
-41.081
-40.677
-40.16
-39.528
-38.777
-37.911
-36.934
-35.849
-34.671
-33.422
-32.124
-30.799
-29.46
-28.107
-26.743
-25.375
-24.006
-22.647
-21.292
-19.923
-18.53
-17.104
-15.635
-14.115
-12.515
-10.786
-8.893
-6.807
-4.519
-2.051
0.582
3.365
6.262
9.237
12.226
15.138
17.899
20.46
22.76
24.754
26.371
27.517
28.131
28.176
27.639
26.537
24.888
22.706
20.043
16.969
13.582
10.022
6.397
2.788
-0.717
-4.052
-7.144
-9.906
-12.312
-14.378
-16.133
-17.632
-18.912
-20
-20.974
-21.931
-22.995
-24.326
-26.015
-28.135
-30.809
-34.079
-37.913
-42.2
-46.605
-50.714
-54.256
-56.931
-58.351
-58.264
-56.549
-53.381
-49.371
-45.287
-41.591
-38.444
-36.455
-36.371
-38.17
-41.325
-43.549
-40.552
-30.638
-13.909
8.74
33.596
61.551
96.935
143.837
208.497
291.604
390.282
498.925
605.644
698.399
759.673
772.079
726.713
620.627
469.809
301.934
145.642
30.082
-36.412
-59.885
-52.845
-36.401
-17.192
2.23
16.887
29.047
31.549
20.715
3.901
-15.481
-30.354
-36.824
-40.486
-43.98
-48.485
-54.442
-58.658
-59.637
-58.044
-54.461
-49.946
-45.353
-41.02
-37.242
-34.287
-32.22
-30.881
-30.14
-29.91
-30.078
-30.574
-31.334
-32.267
-33.335
-34.525
-35.782
-37.019
-38.141
-39.057
-39.694
-40.021
-40.038
-39.761
-39.233
-38.529
-37.717
-36.844
-35.948
-35.032
-34.08
-33.094
-32.085
-31.069
-30.077
-29.133
-28.257
-27.47
-26.77
-26.145
-25.567
-24.981
-24.34
-23.622
-22.813
-21.928
-21.003
-20.058
-19.111
-18.182
-17.277
-16.399
-15.553
-14.729
-13.915
-13.113
-12.327
-11.574
-10.87
-10.217
-9.61
-9.033
-8.46
-7.872
-7.25
-6.572
-5.821
-4.987
-4.061
-3.043
-1.936
-0.739
0.551
1.943
3.444
5.06
6.795
8.652
10.633
12.74
14.972
17.325
19.798
22.392
25.113
27.965
30.948
34.059
37.291
40.635
44.081
47.61
51.197
54.815
58.441
62.051
65.637
69.192
72.704
76.164
79.561
82.89
86.163
89.394
92.592
95.774
98.95
102.145
105.401
108.754
112.227
115.834
119.566
123.401
127.322
131.302
135.303
139.277
143.146
146.826
150.251
153.354
156.071
158.332
160.041
161.114
161.495
161.14
160.036
158.185
155.589
152.264
148.258
143.63
138.467
132.875
126.932
120.713
114.293
107.75
101.182
94.679
88.305
82.112
76.137
70.408
64.955
59.796
54.924
50.321
45.954
41.778
37.767
33.905
30.174
26.557
23.033
19.58
16.193
12.876
9.63
6.46
3.365
0.347
-2.579
-5.395
-8.079
-10.607
-12.965
-15.146
-17.143
-18.953
-20.575
-22.01
-23.265
-24.352
-25.281
-26.06
-26.696
-27.196
-27.571
-27.832
-27.992
-28.062
-28.053
-27.973
-27.833
-27.64
-27.4
-27.121
-26.805
-26.456
-26.079
-25.678
-25.257
-24.821
-24.376
-23.925
-23.471
-23.02
-22.575
-22.138
-21.711
-21.298
-20.898
-20.515
-20.149
-19.802
-19.476
-19.171
-18.889
-18.631
-18.397
-18.189
-18.007
-17.851
-17.723
-17.622
-17.548
-17.504
-17.489
-17.503
-17.549
-17.626
-17.734
-17.875
-18.049
-18.255
-18.495
-18.766
-19.07
-19.405
-19.772
-20.168
-20.594
-21.048
-21.53
-22.037
-22.569
-23.124
-23.699
-24.293
-24.904
-25.529
-26.166
-26.813
-27.467
-28.127
-28.79
-29.455
-30.118
-30.779
-31.435
-32.084
-32.723
-33.351
-33.967
-34.567
-35.151
-35.716
-36.262
-36.788
-37.292
-37.773
-38.232
-38.668
-39.08
-39.468
-39.832
-40.174
-40.493
-40.792
-41.069
-41.328
-41.57
-41.797
-42.009
-42.208
-42.397
-42.576
-42.746
-42.91
-43.067
-43.22
-43.37
-43.517
-43.663
-43.809
-43.955
-44.102
-44.252
-44.403
-44.557
-44.714
-44.875
-45.038
-45.204
-45.373
-45.545
-45.72
-45.896
-46.073
-46.251
-46.427
-46.601
-46.772
-46.937
-47.095
-47.244
-47.384
-47.513
-47.63
-47.733
-47.821
-47.895
-47.953
-47.994
-48.017
-48.023
-48.011
-47.981
-47.934
-47.868
-47.785
-47.686
-47.57
-47.438
-47.291
-47.13
-46.955
-46.767
-46.567
-46.356
-46.135
-45.905
-45.667
-45.424
-45.177
-44.927
-44.676
-44.427
-44.18
-43.937
-43.699
-43.467
-43.244
-43.028
-42.823
-42.627
-42.442
-42.267
-42.104
-41.951
-41.809
-41.677
-41.555
-41.441
-41.336
-41.238
-41.147
-41.062
-40.982
-40.907
-40.836
-40.769
-40.705
-40.643
-40.582
-40.521
-40.46
-40.398
-40.335
-40.268
-40.198
-40.125
-40.048
-39.968
-39.883
-39.796
-39.705
-39.613
-39.52
-39.427
-39.336
-39.248
-39.166
-39.091
-39.026
-38.972
-38.931
-38.906
-38.899
-38.91
-38.941
-38.993
-39.068
-39.166
-39.286
-39.43
-39.598
-39.788
-40
-40.233
-40.486
-40.757
-41.044
-41.344
-41.655
-41.974
-42.296
-42.618
-42.935
-43.243
-43.535
-43.806
-44.051
-44.261
-44.432
-44.557
-44.628
-44.639
-44.584
-44.456
-44.251
-43.961
-43.584
-43.113
-42.547
-41.881
-41.115
-40.246
-39.275
-38.203
-37.031
-35.761
-34.4
-32.951
-31.42
-29.814
-28.141
-26.41
-24.63
-22.812
-20.965
-19.101
-17.233
-15.373
-13.536
-11.737
-9.989
-8.306
-6.704
-5.199
-3.806
-2.538
-1.405
-0.417
0.415
1.079
1.562
1.853
1.949
1.847
1.545
1.044
0.348
-0.532
-1.572
-2.746
-4.027
-5.396
-6.837
-8.329
-9.848
-11.364
-12.84
-14.253
-15.582
-16.811
-17.922
-18.903
-19.748
-20.478
-21.15
-21.825
-22.563
-23.415
-24.41
-25.574
-26.947
-28.581
-30.516
-32.792
-35.438
-38.43
-41.793
-45.593
-49.762
-54.155
-58.501
-62.318
-65.18
-66.838
-66.903
-64.967
-61.002
-55.056
-47.552
-39.566
-31.979
-25.343
-20.421
-17.95
-17.741
-19.296
-21.817
-21.577
-15.066
-1.41
22.328
53.696
86.651
124.122
166.677
220.422
298.521
394.45
495.4
581.028
621.457
610.506
554.799
467.401
368.7
263.832
154.194
46.867
-47.286
-110.468
-132.5
-118.463
-84.727
-50.977
-28.789
-18.671
-14.242
-9.851
-4.322
0.052
-0.216
-5.766
-14.779
-24.961
-33.795
-40.153
-44.011
-45.337
-44.491
-42.116
-38.818
-35.338
-32.395
-30.281
-29.047
-28.681
-29.023
-29.936
-31.319
-33.005
-34.841
-36.736
-38.625
-40.463
-42.211
-43.794
-45.119
-46.121
-46.759
-47.023
-46.922
-46.468
-45.68
-44.585
-43.219
-41.618
-39.815
-37.839
-35.718
-33.49
-31.197
-28.887
-26.612
-24.41
-22.311
-20.334
-18.489
-16.782
-15.214
-13.78
-12.471
-11.279
-10.2
-9.23
-8.365
-7.6
-6.925
-6.332
-5.808
-5.343
-4.928
-4.552
-4.205
-3.88
-3.566
-3.258
-2.948
-2.628
-2.289
-1.922
-1.516
-1.06
-0.543
0.044
0.714
1.476
2.34
3.314
4.405
5.622
6.97
8.454
10.08
11.851
13.77
15.839
18.061
20.434
22.96
25.636
28.46
31.428
34.536
37.778
41.149
44.643
48.25
51.965
55.778
59.679
63.66
67.708
71.812
75.96
80.139
84.334
88.531
92.716
96.873
100.987
105.043
109.026
112.92
116.71
120.38
123.917
127.305
130.53
133.576
136.432
139.083
141.519
143.726
145.696
147.417
148.881
150.08
151.007
151.655
152.018
152.093
151.877
151.367
150.562
149.464
148.075
146.398
144.437
142.2
139.693
136.924
133.903
130.642
127.15
123.442
119.531
115.431
111.159
106.728
102.157
97.463
92.661
87.77
82.808
77.79
72.736
67.661
62.584
57.521
52.487
47.501
42.576
37.728
32.972
28.32
23.786
19.381
15.116
11.002
7.047
3.26
-0.354
-3.787
-7.036
-10.096
-12.965
-15.641
-18.125
-20.417
-22.517
-24.43
-26.157
-27.703
-29.072
-30.27
-31.301
-32.172
-32.889
-33.458
-33.888
-34.185
-34.356
-34.408
-34.351
-34.19
-33.935
-33.593
-33.171
-32.678
-32.122
-31.51
-30.85
-30.149
-29.415
-28.654
-27.872
-27.075
-26.269
-25.459
-24.65
-23.846
-23.051
-22.268
-21.501
-20.753
-20.026
-19.323
-18.645
-17.995
-17.375
-16.785
-16.229
-15.707
-15.221
-14.772
-14.363
-13.993
-13.665
-13.378
-13.133
-12.93
-12.769
-12.649
-12.569
-12.529
-12.528
-12.564
-12.637
-12.745
-12.888
-13.063
-13.27
-13.508
-13.776
-14.072
-14.395
-14.744
-15.119
-15.518
-15.94
-16.385
-16.85
-17.335
-17.837
-18.354
-18.885
-19.425
-19.974
-20.528
-21.084
-21.641
-22.196
-22.748
-23.295
-23.835
-24.367
-24.889
-25.402
-25.903
-26.393
-26.87
-27.335
-27.786
-28.224
-28.648
-29.059
-29.455
-29.837
-30.204
-30.556
-30.892
-31.212
-31.515
-31.802
-32.074
-32.33
-32.572
-32.802
-33.022
-33.233
-33.437
-33.637
-33.834
-34.031
-34.229
-34.43
-34.635
-34.845
-35.062
-35.287
-35.521
-35.764
-36.016
-36.277
-36.548
-36.828
-37.117
-37.415
-37.721
-38.036
-38.358
-38.689
-39.027
-39.374
-39.728
-40.089
-40.457
-40.829
-41.205
-41.582
-41.959
-42.331
-42.698
-43.057
-43.404
-43.737
-44.054
-44.352
-44.629
-44.883
-45.113
-45.317
-45.493
-45.642
-45.762
-45.855
-45.919
-45.956
-45.966
-45.951
-45.911
-45.848
-45.762
-45.656
-45.53
-45.386
-45.225
-45.049
-44.861
-44.662
-44.457
-44.247
-44.037
-43.83
-43.63
-43.442
-43.268
-43.113
-42.981
-42.875
-42.799
-42.755
-42.746
-42.774
-42.842
-42.95
-43.099
-43.29
-43.521
-43.793
-44.103
-44.45
-44.83
-45.242
-45.682
-46.146
-46.631
-47.132
-47.644
-48.164
-48.685
-49.203
-49.71
-50.2
-50.667
-51.102
-51.499
-51.849
-52.145
-52.38
-52.545
-52.634
-52.639
-52.554
-52.373
-52.091
-51.701
-51.2
-50.584
-49.851
-48.999
-48.027
-46.936
-45.727
-44.405
-42.972
-41.436
-39.801
-38.077
-36.271
-34.394
-32.454
-30.463
-28.431
-26.37
-24.293
-22.212
-20.142
-18.097
-16.091
-14.141
-12.262
-10.471
-8.783
-7.213
-5.772
-4.472
-3.324
-2.34
-1.535
-0.92
-0.504
-0.296
-0.301
-0.523
-0.961
-1.605
-2.433
-3.418
-4.534
-5.756
-7.064
-8.434
-9.839
-11.252
-12.638
-13.97
-15.224
-16.379
-17.41
-18.304
-19.055
-19.681
-20.244
-20.811
-21.45
-22.225
-23.173
-24.339
-25.788
-27.587
-29.803
-32.495
-35.678
-39.387
-43.713
-48.666
-54.166
-59.992
-65.691
-70.786
-74.913
-77.662
-78.57
-77.375
-74.031
-68.855
-62.793
-56.839
-51.705
-48.129
-46.776
-47.85
-51.033
-55.182
-57.872
-56.498
-48.983
-32.918
-5.88
33.833
87.165
152.019
222.878
294.886
364.662
432.163
499.552
563.74
616.928
646.742
640.011
592.318
506.117
391.408
264.714
142.069
40.295
-28.345
-61.391
-64.573
-51.798
-36.627
-26.342
-22.005
-19.034
-14.377
-8.461
-3.317
-2.285
-6.438
-14.325
-24.143
-33.759
-41.473
-46.743
-49.411
-49.515
-47.569
-44.19
-39.97
-35.642
-31.869
-28.979
-27.105
-26.259
-26.283
-27.056
-28.49
-30.43
-32.726
-35.26
-37.926
-40.653
-43.377
-46.002
-48.418
-50.517
-52.221
-53.492
-54.318
-54.696
-54.639
-54.162
-53.292
-52.074
-50.548
-48.755
-46.74
-44.542
-42.212
-39.804
-37.374
-34.976
-32.652
-30.427
-28.319
-26.336
-24.483
-22.76
-21.163
-19.682
-18.312
-17.048
-15.888
-14.829
-13.866
-12.993
-12.199
-11.478
-10.821
-10.221
-9.672
-9.167
-8.7
-8.267
-7.861
-7.479
-7.112
-6.752
-6.389
-6.01
-5.606
-5.162
-4.667
-4.107
-3.471
-2.749
-1.932
-1.014
0.014
1.156
2.415
3.795
5.301
6.938
8.709
10.621
12.676
14.877
17.228
19.73
22.383
25.183
28.125
31.202
34.409
37.744
41.206
44.791
48.488
52.286
56.174
60.136
64.152
68.189
72.208
76.175
80.066
83.863
87.56
91.147
94.612
97.95
101.154
104.226
107.168
109.976
112.638
115.154
117.535
119.816
122.05
124.27
126.489
128.715
130.942
133.168
135.38
137.539
139.586
141.46
143.107
144.489
145.58
146.336
146.698
146.588
145.913
144.614
142.65
139.981
136.573
132.39
127.431
121.745
115.423
108.556
101.23
93.519
85.498
77.273
68.954
60.654
52.489
44.539
36.885
29.617
22.83
16.624
11.058
6.137
1.83
-1.895
-5.073
-7.74
-9.947
-11.784
-13.328
-14.642
-15.776
-16.76
-17.631
-18.444
-19.261
-20.144
-21.133
-22.239
-23.454
-24.779
-26.199
-27.698
-29.236
-30.751
-32.196
-33.544
-34.784
-35.916
-36.934
-37.822
-38.566
-39.157
-39.591
-39.869
-39.995
-39.969
-39.797
-39.497
-39.093
-38.622
-38.111
-37.577
-37.03
-36.477
-35.923
-35.379
-34.847
-34.327
-33.82
-33.331
-32.863
-32.425
-32.021
-31.651
-31.315
-31.01
-30.733
-30.486
-30.267
-30.077
-29.917
-29.787
-29.689
-29.628
-29.605
-29.622
-29.677
-29.771
-29.902
-30.069
-30.272
-30.507
-30.774
-31.07
-31.396
-31.75
-32.131
-32.536
-32.966
-33.417
-33.889
-34.378
-34.883
-35.401
-35.929
-36.464
-37.004
-37.546
-38.086
-38.62
-39.147
-39.663
-40.166
-40.652
-41.119
-41.565
-41.987
-42.383
-42.753
-43.095
-43.408
-43.691
-43.944
-44.166
-44.359
-44.522
-44.655
-44.76
-44.837
-44.887
-44.91
-44.909
-44.883
-44.835
-44.766
-44.677
-44.57
-44.448
-44.313
-44.168
-44.014
-43.856
-43.695
-43.535
-43.377
-43.225
-43.08
-42.944
-42.82
-42.71
-42.613
-42.533
-42.469
-42.423
-42.394
-42.384
-42.392
-42.417
-42.458
-42.516
-42.588
-42.674
-42.772
-42.882
-43.002
-43.132
-43.269
-43.413
-43.561
-43.713
-43.866
-44.018
-44.168
-44.313
-44.451
-44.582
-44.702
-44.81
-44.906
-44.987
-45.052
-45.1
-45.131
-45.143
-45.137
-45.111
-45.067
-45.003
-44.922
-44.824
-44.71
-44.581
-44.439
-44.285
-44.12
-43.945
-43.763
-43.573
-43.379
-43.18
-42.98
-42.778
-42.577
-42.377
-42.182
-41.99
-41.805
-41.626
-41.454
-41.291
-41.136
-40.991
-40.856
-40.73
-40.615
-40.51
-40.416
-40.331
-40.255
-40.187
-40.127
-40.074
-40.027
-39.986
-39.948
-39.913
-39.879
-39.847
-39.815
-39.781
-39.745
-39.704
-39.66
-39.609
-39.552
-39.488
-39.417
-39.338
-39.252
-39.159
-39.06
-38.955
-38.844
-38.729
-38.611
-38.491
-38.37
-38.25
-38.131
-38.014
-37.902
-37.794
-37.69
-37.59
-37.493
-37.398
-37.305
-37.212
-37.119
-37.024
-36.929
-36.833
-36.737
-36.639
-36.539
-36.435
-36.324
-36.203
-36.067
-35.911
-35.73
-35.516
-35.265
-34.972
-34.63
-34.234
-33.775
-33.241
-32.626
-31.924
-31.135
-30.258
-29.296
-28.256
-27.15
-25.994
-24.806
-23.6
-22.389
-21.179
-19.977
-18.787
-17.614
-16.468
-15.347
-14.238
-13.127
-11.993
-10.812
-9.562
-8.209
-6.711
-5.034
-3.152
-1.054
1.258
3.776
6.485
9.362
12.382
15.499
18.647
21.755
24.743
27.533
30.052
32.219
33.942
35.152
35.806
35.878
35.366
34.278
32.626
30.442
27.769
24.678
21.26
17.612
13.837
10.029
6.275
2.664
-0.713
-3.798
-6.584
-9.098
-11.385
-13.49
-15.443
-17.275
-19.051
-20.847
-22.736
-24.788
-27.053
-29.563
-32.421
-35.751
-39.576
-43.849
-48.374
-52.75
-56.584
-59.479
-60.847
-60.183
-57.36
-52.273
-45.133
-36.94
-28.711
-21.666
-17.695
-16.579
-15.779
-14.015
-9.218
-2.68
-1.137
-5.241
-12.608
-15.201
5.362
59.981
153.895
283.801
427.823
562.091
661.521
707.368
702.095
657.309
590.66
516.139
433.406
339.768
236.171
133.047
48.645
-3.966
-23.728
-22.981
-16.916
-14.818
-18.148
-20.914
-19.218
-14.097
-8.37
-6.042
-8.759
-15.359
-24.333
-34.224
-43.594
-51.286
-56.632
-59.318
-59.519
-57.837
-54.853
-51.053
-47.035
-43.403
-40.505
-38.518
-37.433
-37.071
-37.292
-37.979
-38.985
-40.179
-41.472
-42.81
-44.158
-45.488
-46.735
-47.808
-48.626
-49.126
-49.274
-49.066
-48.517
-47.655
-46.542
-45.267
-43.9
-42.49
-41.057
-39.585
-38.073
-36.54
-35.011
-33.517
-32.086
-30.739
-29.49
-28.359
-27.343
-26.43
-25.586
-24.751
-23.89
-22.986
-22.046
-21.105
-20.184
-19.292
-18.438
-17.627
-16.864
-16.151
-15.479
-14.827
-14.185
-13.547
-12.921
-12.324
-11.763
-11.23
-10.712
-10.183
-9.621
-9.012
-8.337
-7.576
-6.711
-5.729
-4.625
-3.402
-2.057
-0.587
1.015
2.759
4.65
6.691
8.882
11.224
13.717
16.358
19.144
22.069
25.127
28.314
31.625
35.057
38.605
42.263
46.023
49.876
53.815
57.829
61.907
66.037
70.206
74.402
78.611
82.821
87.017
91.185
95.311
99.381
103.381
107.294
111.107
114.804
118.369
121.788
125.045
128.127
131.018
133.705
136.176
138.418
140.42
142.172
143.664
144.887
145.834
146.499
146.875
146.959
146.747
146.238
145.43
144.326
142.928
141.238
139.263
137.007
134.477
131.683
128.633
125.337
121.808
118.058
114.101
109.952
105.627
101.141
96.513
91.759
86.897
81.945
76.92
71.841
66.725
61.59
56.453
51.33
46.238
41.193
36.209
31.301
26.482
21.764
17.159
12.679
8.332
4.129
0.075
-3.82
-7.552
-11.115
-14.505
-17.72
-20.758
-23.618
-26.301
-28.807
-31.14
-33.301
-35.295
-37.125
-38.796
-40.314
-41.684
-42.911
-44.003
-44.963
-45.8
-46.52
-47.128
-47.631
-48.036
-48.348
-48.574
-48.719
-48.789
-48.79
-48.727
-48.607
-48.433
-48.213
-47.95
-47.649
-47.314
-46.95
-46.559
-46.146
-45.714
-45.264
-44.8
-44.325
-43.84
-43.348
-42.85
-42.349
-41.847
-41.346
-40.849
-40.356
-39.871
-39.397
-38.934
-38.486
-38.056
-37.646
-37.258
-36.894
-36.558
-36.249
-35.971
-35.725
-35.512
-35.332
-35.188
-35.08
-35.008
-34.973
-34.977
-35.019
-35.099
-35.219
-35.378
-35.576
-35.814
-36.089
-36.403
-36.753
-37.139
-37.56
-38.013
-38.496
-39.008
-39.545
-40.104
-40.682
-41.276
-41.883
-42.498
-43.119
-43.742
-44.363
-44.98
-45.59
-46.19
-46.778
-47.351
-47.906
-48.441
-48.954
-49.443
-49.905
-50.338
-50.74
-51.109
-51.444
-51.742
-52.001
-52.222
-52.402
-52.54
-52.636
-52.69
-52.701
-52.67
-52.597
-52.484
-52.331
-52.141
-51.916
-51.656
-51.366
-51.046
-50.698
-50.326
-49.93
-49.514
-49.079
-48.628
-48.162
-47.685
-47.198
-46.705
-46.208
-45.71
-45.215
-44.724
-44.242
-43.77
-43.313
-42.872
-42.452
-42.053
-41.68
-41.334
-41.018
-40.732
-40.479
-40.259
-40.073
-39.92
-39.8
-39.712
-39.656
-39.63
-39.635
-39.668
-39.728
-39.814
-39.924
-40.057
-40.21
-40.382
-40.569
-40.77
-40.98
-41.197
-41.419
-41.641
-41.86
-42.074
-42.278
-42.469
-42.645
-42.801
-42.934
-43.041
-43.12
-43.169
-43.186
-43.17
-43.121
-43.04
-42.926
-42.782
-42.608
-42.406
-42.177
-41.924
-41.647
-41.349
-41.033
-40.7
-40.354
-39.999
-39.637
-39.273
-38.911
-38.553
-38.204
-37.867
-37.547
-37.247
-36.971
-36.722
-36.503
-36.32
-36.175
-36.071
-36.009
-35.993
-36.021
-36.094
-36.21
-36.366
-36.558
-36.783
-37.036
-37.314
-37.613
-37.929
-38.258
-38.596
-38.942
-39.288
-39.63
-39.958
-40.265
-40.543
-40.784
-40.976
-41.111
-41.18
-41.175
-41.092
-40.926
-40.67
-40.314
-39.846
-39.26
-38.551
-37.721
-36.77
-35.701
-34.523
-33.252
-31.914
-30.534
-29.132
-27.714
-26.282
-24.838
-23.386
-21.931
-20.48
-19.026
-17.556
-16.066
-14.555
-13.019
-11.448
-9.812
-8.064
-6.167
-4.104
-1.88
0.483
2.964
5.539
8.176
10.824
13.413
15.87
18.14
20.182
21.96
23.422
24.501
25.113
25.199
24.738
23.734
22.209
20.183
17.69
14.782
11.547
8.102
4.56
1.014
-2.469
-5.826
-8.987
-11.877
-14.43
-16.619
-18.464
-19.996
-21.241
-22.229
-23.012
-23.667
-24.309
-25.069
-26.051
-27.367
-29.155
-31.483
-34.327
-37.541
-40.838
-43.909
-46.515
-48.375
-49.073
-48.307
-46.094
-42.808
-39.177
-35.943
-33.477
-32.036
-32.239
-34.579
-38.794
-43.838
-47.903
-48.886
-45.182
-35.346
-16.987
12.625
53.651
103.45
158.926
216.223
276.472
346.291
425.578
508.432
581.749
624.222
623.933
580.435
499.515
393.635
274.729
152.286
39.057
-48.08
-96.599
-103.957
-77.891
-37.431
-2.693
17.402
21.041
12.472
1.728
-7.363
-14
-16.95
-20.003
-24.531
-29.454
-34.973
-39.086
-40.409
-39.381
-36.255
-31.799
-26.94
-22.153
-17.877
-14.437
-11.934
-10.36
-9.61
-9.596
-10.243
-11.434
-13.073
-15.04
-17.229
-19.582
-22.027
-24.468
-26.798
-28.901
-30.693
-32.138
-33.219
-33.928
-34.269
-34.248
-33.884
-33.215
-32.273
-31.095
-29.717
-28.171
-26.5
-24.754
-22.985
-21.243
-19.567
-17.978
-16.49
-15.111
-13.843
-12.684
-11.628
-10.663
-9.78
-8.974
-8.239
-7.572
-6.966
-6.413
-5.903
-5.426
-4.973
-4.538
-4.113
-3.692
-3.27
-2.841
-2.402
-1.949
-1.478
-0.981
-0.451
0.12
0.741
1.42
2.168
2.995
3.91
4.921
6.037
7.262
8.602
10.063
11.646
13.354
15.189
17.151
19.244
21.468
23.827
26.322
28.954
31.724
34.631
37.672
40.843
44.14
47.555
51.08
54.711
58.442
62.271
66.193
70.199
74.276
78.408
82.571
86.739
90.882
94.971
98.979
102.887
106.681
110.359
113.917
117.357
120.674
123.851
126.876
129.738
132.43
134.954
137.321
139.546
141.655
143.676
145.628
147.52
149.346
151.073
152.658
154.052
155.212
156.117
156.749
157.085
157.102
156.773
156.062
154.939
153.363
151.278
148.649
145.448
141.673
137.361
132.567
127.361
121.806
115.946
109.816
103.473
96.97
90.355
83.687
77.006
70.366
63.843
57.5
51.395
45.568
40.024
34.749
29.729
24.951
20.412
16.123
12.061
8.208
4.557
1.098
-2.162
-5.224
-8.112
-10.847
-13.445
-15.914
-18.248
-20.43
-22.457
-24.324
-26.032
-27.591
-28.984
-30.2
-31.239
-32.104
-32.808
-33.364
-33.771
-34.029
-34.148
-34.137
-34.011
-33.787
-33.471
-33.071
-32.594
-32.047
-31.448
-30.814
-30.155
-29.481
-28.801
-28.12
-27.451
-26.804
-26.184
-25.595
-25.041
-24.526
-24.056
-23.639
-23.279
-22.98
-22.743
-22.569
-22.46
-22.415
-22.435
-22.517
-22.659
-22.858
-23.112
-23.421
-23.781
-24.191
-24.648
-25.148
-25.688
-26.266
-26.878
-27.521
-28.19
-28.882
-29.593
-30.32
-31.06
-31.809
-32.565
-33.323
-34.082
-34.838
-35.587
-36.328
-37.056
-37.77
-38.467
-39.145
-39.803
-40.439
-41.053
-41.645
-42.215
-42.763
-43.289
-43.794
-44.279
-44.745
-45.192
-45.622
-46.035
-46.433
-46.817
-47.188
-47.549
-47.9
-48.244
-48.582
-48.915
-49.246
-49.574
-49.901
-50.229
-50.558
-50.89
-51.226
-51.566
-51.912
-52.265
-52.624
-52.992
-53.366
-53.748
-54.136
-54.53
-54.929
-55.332
-55.739
-56.147
-56.557
-56.967
-57.376
-57.783
-58.187
-58.585
-58.978
-59.362
-59.737
-60.102
-60.453
-60.791
-61.114
-61.421
-61.711
-61.983
-62.237
-62.472
-62.687
-62.881
-63.055
-63.208
-63.34
-63.451
-63.543
-63.615
-63.669
-63.707
-63.728
-63.736
-63.729
-63.711
-63.683
-63.645
-63.599
-63.547
-63.491
-63.432
-63.372
-63.315
-63.26
-63.212
-63.172
-63.142
-63.124
-63.121
-63.135
-63.166
-63.218
-63.292
-63.39
-63.513
-63.661
-63.837
-64.04
-64.271
-64.529
-64.814
-65.126
-65.463
-65.824
-66.207
-66.611
-67.034
-67.474
-67.928
-68.393
-68.867
-69.347
-69.827
-70.305
-70.775
-71.234
-71.675
-72.094
-72.484
-72.841
-73.158
-73.428
-73.646
-73.805
-73.898
-73.92
-73.864
-73.724
-73.495
-73.172
-72.751
-72.227
-71.596
-70.855
-70.002
-69.035
-67.953
-66.756
-65.444
-64.018
-62.481
-60.837
-59.09
-57.247
-55.313
-53.295
-51.202
-49.047
-46.84
-44.594
-42.32
-40.029
-37.736
-35.454
-33.198
-30.982
-28.82
-26.725
-24.71
-22.793
-20.989
-19.314
-17.775
-16.378
-15.127
-14.031
-13.102
-12.354
-11.796
-11.433
-11.268
-11.306
-11.547
-11.987
-12.609
-13.389
-14.299
-15.305
-16.394
-17.565
-18.817
-20.147
-21.519
-22.866
-24.141
-25.311
-26.354
-27.289
-28.102
-28.722
-29.229
-29.803
-30.604
-31.851
-33.583
-35.591
-37.845
-40.5
-43.459
-46.55
-49.593
-52.119
-54.098
-55.975
-57.735
-59.162
-60.322
-61.191
-61.85
-62.847
-64.111
-65.192
-66.39
-67.996
-70.055
-72.73
-75.818
-78.815
-81.763
-84.421
-85.519
-83.737
-77.64
-65.912
-47.594
-21.258
14.862
61.864
118.195
180.23
244.671
307.88
370.343
435.662
501.006
562.685
612.076
631.587
613.843
554.693
452.925
325.401
187.91
58.007
-40.7
-99.671
-117.664
-100.772
-65.994
-28.336
-0.132
12.102
7.5
-9.732
-30.537
-49.197
-61.237
-65.959
-68.532
-71.383
-75.356
-80.358
-83.557
-83.74
-81.416
-77.096
-71.823
-66.454
-61.351
-56.819
-53.104
-50.264
-48.205
-46.858
-46.188
-46.116
-46.57
-47.472
-48.702
-50.175
-51.845
-53.633
-55.435
-57.15
-58.667
-59.89
-60.775
-61.294
-61.432
-61.193
-60.59
-59.64
-58.379
-56.849
-55.093
-53.155
-51.077
-48.9
-46.671
-44.436
-42.244
-40.136
-38.139
-36.269
-34.532
-32.931
-31.464
-30.126
-28.907
-27.792
-26.769
-25.829
-24.964
-24.165
-23.423
-22.727
-22.065
-21.426
-20.8
-20.18
-19.556
-18.922
-18.27
-17.594
-16.886
-16.141
-15.353
-14.514
-13.616
-12.651
-11.611
-10.488
-9.276
-7.967
-6.556
-5.037
-3.406
-1.659
0.205
2.191
4.299
6.53
8.885
11.365
13.969
16.696
19.546
22.515
25.601
28.802
32.114
35.53
39.045
42.653
46.346
50.116
53.955
57.851
61.795
65.776
69.785
73.81
77.84
81.862
85.866
89.837
93.765
97.634
101.428
105.133
108.733
112.214
115.563
118.765
121.808
124.675
127.356
129.84
132.116
134.17
135.984
137.543
138.833
139.854
140.605
141.088
141.3
141.243
140.923
140.349
139.528
138.458
137.125
135.517
133.631
131.473
129.06
126.41
123.53
120.419
117.073
113.495
109.693
105.667
101.409
96.9
92.144
87.173
82.041
76.807
71.509
66.175
60.821
55.467
50.147
44.899
39.758
34.746
29.889
25.226
20.813
16.712
12.957
9.544
6.435
3.594
1.006
-1.336
-3.433
-5.297
-6.946
-8.396
-9.653
-10.716
-11.593
-12.309
-12.908
-13.437
-13.922
-14.358
-14.723
-14.994
-15.169
-15.247
-15.23
-15.113
-14.89
-14.567
-14.163
-13.696
-13.178
-12.611
-11.985
-11.29
-10.53
-9.717
-8.873
-8.017
-7.16
-6.314
-5.491
-4.707
-3.975
-3.298
-2.672
-2.096
-1.568
-1.092
-0.675
-0.319
-0.027
0.204
0.374
0.487
0.544
0.548
0.505
0.42
0.299
0.144
-0.044
-0.262
-0.507
-0.778
-1.069
-1.379
-1.705
-2.044
-2.391
-2.744
-3.099
-3.455
-3.808
-4.157
-4.501
-4.837
-5.165
-5.483
-5.79
-6.084
-6.364
-6.628
-6.876
-7.107
-7.318
-7.511
-7.685
-7.841
-7.978
-8.097
-8.201
-8.288
-8.361
-8.421
-8.469
-8.506
-8.533
-8.553
-8.565
-8.572
-8.575
-8.575
-8.575
-8.575
-8.576
-8.578
-8.584
-8.594
-8.608
-8.628
-8.655
-8.691
-8.737
-8.795
-8.867
-8.956
-9.062
-9.187
-9.332
-9.499
-9.688
-9.9
-10.135
-10.393
-10.675
-10.981
-11.31
-11.661
-12.033
-12.426
-12.839
-13.269
-13.717
-14.179
-14.656
-15.146
-15.647
-16.16
-16.682
-17.212
-17.749
-18.292
-18.837
-19.383
-19.928
-20.469
-21.002
-21.525
-22.036
-22.53
-23.007
-23.463
-23.895
-24.302
-24.681
-25.03
-25.349
-25.636
-25.889
-26.109
-26.294
-26.446
-26.565
-26.651
-26.705
-26.727
-26.719
-26.68
-26.612
-26.514
-26.388
-26.234
-26.054
-25.847
-25.615
-25.36
-25.084
-24.789
-24.477
-24.15
-23.812
-23.464
-23.111
-22.755
-22.399
-22.045
-21.698
-21.359
-21.032
-20.718
-20.421
-20.141
-19.88
-19.639
-19.42
-19.223
-19.049
-18.899
-18.773
-18.672
-18.598
-18.552
-18.536
-18.551
-18.598
-18.681
-18.798
-18.952
-19.143
-19.371
-19.637
-19.938
-20.274
-20.643
-21.04
-21.465
-21.913
-22.381
-22.866
-23.364
-23.871
-24.386
-24.906
-25.427
-25.946
-26.459
-26.96
-27.445
-27.91
-28.349
-28.757
-29.124
-29.445
-29.715
-29.925
-30.067
-30.129
-30.095
-29.953
-29.698
-29.325
-28.835
-28.23
-27.518
-26.713
-25.838
-24.915
-23.963
-22.995
-22.016
-21.036
-20.067
-19.124
-18.231
-17.396
-16.613
-15.874
-15.166
-14.462
-13.729
-12.912
-11.933
-10.728
-9.249
-7.466
-5.373
-2.966
-0.24
2.802
6.158
9.805
13.69
17.761
21.96
26.206
30.408
34.439
38.132
41.352
43.992
45.97
47.249
47.793
47.576
46.591
44.842
42.356
39.189
35.395
31.027
26.162
20.878
15.297
9.58
3.836
-1.847
-7.408
-12.814
-18.023
-23.001
-27.764
-32.341
-36.769
-41.1
-45.336
-49.5
-53.685
-57.896
-62.065
-66.037
-69.456
-71.982
-73.411
-73.464
-71.757
-68.1
-62.535
-55.486
-47.903
-40.66
-34.266
-29.207
-26.044
-25.043
-25.883
-27.368
-27.366
-23.733
-14.616
1.865
27.771
65.291
114.138
171.023
232.558
295.003
359.255
431.182
510.022
589.877
657.855
693.152
685.305
633.231
541.949
426.777
300.956
177.204
72.403
-2.227
-41.256
-48.255
-38.756
-27.062
-21.154
-22.068
-22.968
-19.589
-12.84
-5.417
-1.686
-3.449
-9.359
-17.723
-26.799
-35.057
-41.584
-45.886
-47.731
-47.409
-45.565
-42.814
-39.72
-36.855
-34.686
-33.465
-33.287
-34.071
-35.617
-37.755
-40.319
-43.134
-46.019
-48.828
-51.466
-53.857
-55.961
-57.735
-59.104
-60.017
-60.449
-60.388
-59.856
-58.894
-57.536
-55.846
-53.906
-51.797
-49.628
-47.492
-45.438
-43.509
-41.714
-40.041
-38.501
-37.104
-35.843
-34.72
-33.722
-32.83
-32.037
-31.325
-30.661
-30.009
-29.309
-28.516
-27.613
-26.599
-25.493
-24.334
-23.146
-21.944
-20.753
-19.585
-18.448
-17.351
-16.287
-15.246
-14.232
-13.249
-12.314
-11.442
-10.631
-9.872
-9.148
-8.431
-7.701
-6.938
-6.12
-5.229
-4.251
-3.177
-2.002
-0.728
0.649
2.137
3.743
5.477
7.346
9.353
11.501
13.79
16.22
18.792
21.5
24.342
27.316
30.416
33.643
36.992
40.46
44.04
47.726
51.508
55.376
59.321
63.329
67.387
71.48
75.595
79.716
83.829
87.915
91.96
95.945
99.853
103.667
107.369
110.94
114.364
117.622
120.698
123.576
126.237
128.669
130.854
132.781
134.436
135.807
136.884
137.659
138.125
138.275
138.106
137.615
136.802
135.666
134.211
132.439
130.358
127.973
125.294
122.331
119.096
115.602
111.864
107.898
103.721
99.351
94.806
90.105
85.27
80.319
75.274
70.157
64.987
59.787
54.578
49.38
44.215
39.101
34.057
29.102
24.253
19.524
14.932
10.488
6.207
2.099
-1.825
-5.556
-9.088
-12.414
-15.528
-18.429
-21.114
-23.583
-25.836
-27.877
-29.707
-31.332
-32.756
-33.985
-35.026
-35.886
-36.573
-37.097
-37.467
-37.693
-37.786
-37.757
-37.616
-37.374
-37.042
-36.63
-36.148
-35.607
-35.017
-34.387
-33.726
-33.043
-32.348
-31.647
-30.95
-30.261
-29.588
-28.936
-28.31
-27.713
-27.149
-26.621
-26.132
-25.684
-25.279
-24.917
-24.599
-24.327
-24.099
-23.916
-23.775
-23.675
-23.615
-23.593
-23.607
-23.654
-23.733
-23.841
-23.976
-24.135
-24.317
-24.517
-24.734
-24.964
-25.206
-25.456
-25.712
-25.973
-26.236
-26.501
-26.765
-27.028
-27.289
-27.546
-27.8
-28.049
-28.293
-28.532
-28.764
-28.991
-29.212
-29.427
-29.638
-29.845
-30.047
-30.247
-30.444
-30.639
-30.833
-31.026
-31.219
-31.412
-31.608
-31.805
-32.007
-32.212
-32.422
-32.638
-32.859
-33.086
-33.32
-33.559
-33.803
-34.053
-34.307
-34.566
-34.829
-35.096
-35.365
-35.635
-35.907
-36.179
-36.45
-36.718
-36.983
-37.244
-37.498
-37.745
-37.985
-38.215
-38.435
-38.644
-38.841
-39.026
-39.196
-39.352
-39.493
-39.618
-39.728
-39.822
-39.9
-39.962
-40.01
-40.043
-40.063
-40.07
-40.066
-40.05
-40.024
-39.989
-39.946
-39.897
-39.842
-39.783
-39.721
-39.658
-39.595
-39.534
-39.475
-39.421
-39.371
-39.328
-39.293
-39.266
-39.248
-39.241
-39.244
-39.259
-39.285
-39.323
-39.372
-39.432
-39.502
-39.582
-39.67
-39.766
-39.869
-39.977
-40.09
-40.206
-40.326
-40.447
-40.569
-40.691
-40.813
-40.933
-41.051
-41.166
-41.279
-41.389
-41.495
-41.599
-41.699
-41.797
-41.892
-41.985
-42.076
-42.167
-42.258
-42.351
-42.446
-42.547
-42.654
-42.77
-42.898
-43.04
-43.198
-43.376
-43.576
-43.799
-44.049
-44.327
-44.635
-44.974
-45.347
-45.753
-46.194
-46.67
-47.182
-47.728
-48.307
-48.918
-49.56
-50.231
-50.927
-51.645
-52.383
-53.137
-53.902
-54.675
-55.452
-56.226
-56.992
-57.743
-58.475
-59.178
-59.846
-60.472
-61.047
-61.565
-62.018
-62.398
-62.698
-62.913
-63.034
-63.057
-62.975
-62.784
-62.479
-62.056
-61.514
-60.849
-60.062
-59.153
-58.123
-56.976
-55.716
-54.348
-52.879
-51.314
-49.661
-47.929
-46.127
-44.265
-42.352
-40.401
-38.423
-36.433
-34.446
-32.476
-30.538
-28.648
-26.82
-25.072
-23.419
-21.878
-20.459
-19.178
-18.046
-17.08
-16.3
-15.718
-15.342
-15.178
-15.228
-15.492
-15.966
-16.641
-17.491
-18.495
-19.622
-20.848
-22.158
-23.527
-24.928
-26.327
-27.684
-28.969
-30.164
-31.253
-32.227
-33.087
-33.833
-34.499
-35.147
-35.842
-36.667
-37.696
-38.984
-40.59
-42.562
-44.947
-47.807
-51.191
-55.116
-59.571
-64.517
-69.921
-75.782
-82.022
-88.42
-94.611
-100.129
-104.585
-107.646
-108.936
-108.12
-104.953
-99.473
-92.268
-84.108
-75.537
-67.392
-60.531
-55.079
-51.286
-47.86
-40.788
-28.322
-10.047
13.662
36.789
57.687
82
115.027
169.198
252.577
355.347
463.15
551.276
592.883
583.276
526.052
435.028
333.392
228.959
128.665
40.691
-34.14
-86.295
-112.237
-120.014
-114.647
-105.542
-98.52
-90.03
-79.76
-68.328
-56.704
-48.983
-46.853
-49.382
-55.329
-62.899
-70.315
-76.411
-80.536
-82.316
-81.864
-79.764
-76.625
-72.993
-69.496
-66.656
-64.72
-63.816
-63.897
-64.762
-66.266
-68.272
-70.617
-73.159
-75.788
-78.403
-80.924
-83.282
-85.382
-87.147
-88.53
-89.498
-90.05
-90.191
-89.936
-89.313
-88.361
-87.119
-85.624
-83.913
-82.019
-79.984
-77.856
-75.687
-73.528
-71.42
-69.393
-67.468
-65.66
-63.975
-62.417
-60.982
-59.663
-58.454
-57.352
-56.357
-55.468
-54.681
-53.99
-53.387
-52.865
-52.417
-52.035
-51.711
-51.44
-51.214
-51.027
-50.875
-50.751
-50.648
-50.557
-50.47
-50.374
-50.261
-50.118
-49.937
-49.705
-49.412
-49.048
-48.603
-48.069
-47.437
-46.697
-45.841
-44.861
-43.748
-42.497
-41.101
-39.553
-37.849
-35.986
-33.959
-31.768
-29.411
-26.888
-24.2
-21.35
-18.342
-15.178
-11.865
-8.409
-4.817
-1.097
2.74
6.685
10.726
14.853
19.051
23.309
27.612
31.945
36.294
40.643
44.976
49.277
53.529
57.714
61.815
65.814
69.694
73.437
77.026
80.444
83.674
86.7
89.508
92.083
94.411
96.481
98.28
99.799
101.028
101.959
102.587
102.905
102.91
102.6
101.974
101.031
99.774
98.205
96.33
94.155
91.685
88.931
85.903
82.611
79.069
75.291
71.293
67.091
62.702
58.146
53.442
48.608
43.667
38.638
33.541
28.399
23.232
18.06
12.904
7.784
2.72
-2.271
-7.17
-11.959
-16.623
-21.146
-25.514
-29.713
-33.732
-37.56
-41.186
-44.603
-47.802
-50.778
-53.527
-56.045
-58.331
-60.385
-62.208
-63.803
-65.174
-66.328
-67.269
-68.007
-68.549
-68.906
-69.086
-69.102
-68.964
-68.684
-68.275
-67.749
-67.119
-66.397
-65.597
-64.73
-63.808
-62.844
-61.849
-60.834
-59.809
-58.785
-57.771
-56.777
-55.811
-54.88
-53.992
-53.152
-52.365
-51.636
-50.967
-50.36
-49.816
-49.334
-48.915
-48.557
-48.257
-48.013
-47.822
-47.678
-47.578
-47.517
-47.488
-47.487
-47.507
-47.542
-47.585
-47.632
-47.675
-47.71
-47.73
-47.731
-47.706
-47.651
-47.56
-47.429
-47.254
-47.03
-46.753
-46.422
-46.033
-45.586
-45.079
-44.512
-43.886
-43.201
-42.459
-41.661
-40.811
-39.909
-38.96
-37.967
-36.934
-35.865
-34.765
-33.638
-32.488
-31.322
-30.144
-28.958
-27.768
-26.579
-25.396
-24.221
-23.06
-21.916
-20.793
-19.694
-18.623
-17.582
-16.574
-15.601
-14.665
-13.766
-12.903
-12.078
-11.29
-10.536
-9.817
-9.13
-8.474
-7.845
-7.242
-6.661
-6.099
-5.552
-5.016
-4.489
-3.964
-3.439
-2.91
-2.372
-1.823
-1.258
-0.676
-0.071
0.557
1.214
1.9
2.619
3.373
4.163
4.99
5.854
6.757
7.697
8.672
9.682
10.724
11.795
12.893
14.014
15.155
16.311
17.479
18.654
19.83
21.003
22.167
23.317
24.446
25.549
26.621
27.657
28.65
29.597
30.492
31.331
32.109
32.823
33.468
34.043
34.543
34.968
35.315
35.585
35.778
35.894
35.936
35.905
35.806
35.642
35.418
35.139
34.811
34.439
34.032
33.596
33.139
32.669
32.195
31.726
31.271
30.839
30.439
30.08
29.772
29.524
29.344
29.24
29.221
29.294
29.466
29.743
30.13
30.633
31.254
31.997
32.862
33.849
34.959
36.187
37.531
38.987
40.548
42.206
43.952
45.777
47.669
49.616
51.604
53.62
55.651
57.681
59.698
61.686
63.631
65.518
67.331
69.053
70.669
72.166
73.527
74.742
75.798
76.691
77.413
77.962
78.33
78.507
78.487
78.263
77.835
77.2
76.364
75.333
74.126
72.768
71.287
69.71
68.059
66.352
64.609
62.854
61.119
59.443
57.864
56.415
55.129
54.04
53.171
52.526
52.084
51.794
51.612
51.515
51.476
51.468
51.446
51.344
51.101
50.666
49.961
48.872
47.323
45.315
42.992
40.662
38.676
37.375
37.125
38.347
41.336
46.087
52.15
58.67
64.704
69.417
72.069
71.881
68.342
61.675
53.181
44.931
39.237
38.69
45.951
63.599
94.238
138.169
192.463
255.421
325.713
402.98
489.69
579.493
658.972
715.282
735.133
718.639
677.362
619.81
551.589
470.32
371.06
260.383
155.313
75.746
34.553
28.979
42.917
59.449
68.676
69.75
68.87
70.177
73.667
77.193
77.146
72.372
64.206
54.289
44.624
36.776
31.233
28.138
27.41
28.525
30.898
33.981
37.098
39.633
41.265
41.859
41.42
40.117
38.092
35.46
32.39
29.058
25.628
22.226
18.93
15.783
12.825
10.128
7.775
5.825
4.314
3.245
2.589
2.314
2.385
2.749
3.339
4.073
4.841
5.567
6.211
6.75
7.199
7.553
7.783
7.877
7.829
7.645
7.344
6.942
6.439
5.855
5.219
4.574
3.986
3.488
3.09
2.781
2.528
2.309
2.12
1.95
1.789
1.626
1.454
1.275
1.108
0.958
0.825
0.7
0.563
0.411
0.25
0.097
-0.024
-0.092
-0.094
-0.012
0.173
0.475
0.905
1.465
2.151
2.962
3.902
4.976
6.191
7.551
9.055
10.703
12.493
14.423
16.488
18.684
21.003
23.439
25.985
28.637
31.389
34.236
37.169
40.179
43.255
46.386
49.56
52.763
55.979
59.195
62.394
65.562
68.684
71.743
74.725
77.613
80.393
83.048
85.564
87.926
90.118
92.128
93.942
95.546
96.93
98.081
98.989
99.644
100.038
100.163
100.011
99.577
98.857
97.848
96.548
94.958
93.078
90.912
88.465
85.742
82.75
79.499
75.998
72.258
68.291
64.111
59.732
55.169
50.437
45.553
40.533
35.396
30.158
24.838
19.452
14.019
8.557
3.083
-2.385
-7.829
-13.232
-18.578
-23.851
-29.034
-34.114
-39.076
-43.908
-48.598
-53.136
-57.512
-61.716
-65.743
-69.584
-73.235
-76.692
-79.951
-83.011
-85.87
-88.529
-90.989
-93.251
-95.318
-97.194
-98.882
-100.387
-101.714
-102.867
-103.853
-104.678
-105.349
-105.872
-106.257
-106.51
-106.639
-106.654
-106.56
-106.368
-106.083
-105.715
-105.27
-104.756
-104.179
-103.547
-102.866
-102.143
-101.383
-100.593
-99.776
-98.938
-98.083
-97.215
-96.337
-95.453
-94.566
-93.678
-92.794
-91.914
-91.043
-90.182
-89.333
-88.499
-87.681
-86.88
-86.097
-85.334
-84.591
-83.869
-83.168
-82.49
-81.835
-81.205
-80.599
-80.018
-79.463
-78.934
-78.432
-77.956
-77.506
-77.084
-76.69
-76.323
-75.986
-75.678
-75.399
-75.15
-74.932
-74.743
-74.585
-74.455
-74.355
-74.282
-74.237
-74.219
-74.226
-74.259
-74.316
-74.396
-74.498
-74.622
-74.764
-74.925
-75.101
-75.291
-75.495
-75.708
-75.931
-76.161
-76.397
-76.637
-76.88
-77.123
-77.365
-77.604
-77.838
-78.066
-78.285
-78.495
-78.694
-78.881
-79.055
-79.216
-79.362
-79.493
-79.609
-79.708
-79.791
-79.858
-79.907
-79.94
-79.956
-79.955
-79.939
-79.907
-79.861
-79.801
-79.728
-79.643
-79.545
-79.437
-79.318
-79.188
-79.049
-78.9
-78.743
-78.577
-78.403
-78.222
-78.034
-77.839
-77.637
-77.428
-77.212
-76.989
-76.76
-76.524
-76.281
-76.032
-75.777
-75.516
-75.25
-74.978
-74.701
-74.419
-74.132
-73.84
-73.544
-73.244
-72.941
-72.635
-72.329
-72.022
-71.717
-71.415
-71.117
-70.827
-70.545
-70.274
-70.016
-69.773
-69.548
-69.343
-69.16
-69.002
-68.871
-68.768
-68.696
-68.656
-68.648
-68.675
-68.735
-68.831
-68.961
-69.126
-69.326
-69.558
-69.824
-70.12
-70.444
-70.795
-71.168
-71.559
-71.966
-72.382
-72.803
-73.223
-73.636
-74.035
-74.415
-74.767
-75.084
-75.359
-75.584
-75.75
-75.849
-75.876
-75.821
-75.679
-75.442
-75.105
-74.662
-74.108
-73.439
-72.651
-71.742
-70.708
-69.548
-68.263
-66.852
-65.318
-63.663
-61.894
-60.016
-58.037
-55.964
-53.808
-51.579
-49.288
-46.948
-44.571
-42.168
-39.755
-37.347
-34.958
-32.605
-30.303
-28.071
-25.924
-23.881
-21.958
-20.168
-18.524
-17.036
-15.717
-14.578
-13.636
-12.906
-12.395
-12.113
-12.064
-12.249
-12.665
-13.297
-14.115
-15.09
-16.191
-17.392
-18.67
-20.001
-21.357
-22.705
-24.006
-25.223
-26.328
-27.295
-28.101
-28.739
-29.208
-29.543
-29.823
-30.128
-30.539
-31.124
-31.914
-32.96
-34.327
-36.081
-38.292
-41.029
-44.304
-48.152
-52.659
-57.781
-63.378
-69.188
-74.704
-79.452
-83.111
-85.256
-85.435
-83.542
-79.642
-74.093
-67.849
-61.645
-55.874
-51.221
-48.245
-46.737
-46.142
-45.241
-41.668
-33.509
-19.412
2.774
35.058
78.239
132.465
195.338
261.422
326.088
386.283
441.884
495.036
546.12
590.84
616.475
608.572
556.573
458.251
329.38
194.616
79.314
3.428
-31.077
-35.261
-26.2
-19.25
-19.532
-24.55
-27.787
-25.321
-18.614
-11.098
-6.747
-7.309
-11.884
-18.991
-27.18
-35.094
-41.662
-46.306
-48.746
-49.108
-47.911
-45.669
-42.834
-39.951
-37.559
-35.952
-35.275
-35.508
-36.473
-38.042
-40.102
-42.505
-45.106
-47.788
-50.46
-53.052
-55.505
-57.733
-59.637
-61.148
-62.222
-62.846
-63.019
-62.749
-62.056
-60.974
-59.55
-57.833
-55.864
-53.686
-51.335
-48.857
-46.303
-43.726
-41.178
-38.7
-36.322
-34.065
-31.943
-29.964
-28.131
-26.443
-24.889
-23.465
-22.165
-20.987
-19.93
-18.985
-18.147
-17.406
-16.752
-16.176
-15.671
-15.225
-14.831
-14.479
-14.161
-13.869
-13.595
-13.329
-13.06
-12.778
-12.47
-12.124
-11.729
-11.273
-10.742
-10.126
-9.413
-8.592
-7.655
-6.591
-5.391
-4.049
-2.557
-0.908
0.901
2.875
5.018
7.331
9.816
12.473
15.301
18.299
21.463
24.79
28.273
31.905
35.678
39.583
43.611
47.749
51.985
56.306
60.699
65.15
69.646
74.171
78.71
83.246
87.763
92.244
96.67
101.023
105.28
109.421
113.429
117.285
120.971
124.471
127.765
130.84
133.682
136.278
138.614
140.673
142.436
143.889
145.027
145.849
146.36
146.562
146.459
146.057
145.372
144.409
143.174
141.662
139.855
137.748
135.344
132.656
129.709
126.516
123.08
119.404
115.487
111.328
106.934
102.296
97.39
92.219
86.8
81.176
75.422
69.59
63.718
57.837
51.965
46.129
40.372
34.728
29.23
23.912
18.809
13.975
9.487
5.389
1.693
-1.618
-4.598
-7.284
-9.693
-11.842
-13.743
-15.414
-16.881
-18.16
-19.253
-20.175
-20.949
-21.615
-22.237
-22.849
-23.465
-24.076
-24.648
-25.16
-25.607
-25.979
-26.268
-26.468
-26.571
-26.584
-26.526
-26.408
-26.23
-25.986
-25.657
-25.236
-24.729
-24.15
-23.519
-22.856
-22.17
-21.476
-20.791
-20.126
-19.489
-18.883
-18.299
-17.737
-17.197
-16.683
-16.2
-15.752
-15.338
-14.958
-14.611
-14.294
-14.008
-13.749
-13.515
-13.302
-13.11
-12.94
-12.795
-12.676
-12.584
-12.52
-12.485
-12.478
-12.5
-12.55
-12.627
-12.729
-12.856
-13.006
-13.18
-13.375
-13.592
-13.83
-14.087
-14.364
-14.659
-14.972
-15.301
-15.647
-16.009
-16.385
-16.775
-17.178
-17.593
-18.02
-18.458
-18.905
-19.36
-19.822
-20.29
-20.76
-21.233
-21.706
-22.177
-22.644
-23.107
-23.563
-24.013
-24.456
-24.89
-25.315
-25.731
-26.136
-26.531
-26.915
-27.287
-27.647
-27.994
-28.328
-28.648
-28.955
-29.247
-29.523
-29.784
-30.029
-30.256
-30.465
-30.655
-30.827
-30.978
-31.11
-31.222
-31.314
-31.387
-31.441
-31.476
-31.494
-31.493
-31.475
-31.441
-31.389
-31.322
-31.239
-31.141
-31.03
-30.904
-30.766
-30.617
-30.458
-30.289
-30.112
-29.929
-29.741
-29.55
-29.357
-29.166
-28.978
-28.795
-28.62
-28.456
-28.305
-28.169
-28.049
-27.948
-27.865
-27.803
-27.762
-27.741
-27.742
-27.763
-27.805
-27.865
-27.943
-28.038
-28.146
-28.267
-28.398
-28.534
-28.674
-28.814
-28.949
-29.076
-29.19
-29.287
-29.361
-29.407
-29.42
-29.394
-29.322
-29.199
-29.018
-28.772
-28.457
-28.067
-27.597
-27.042
-26.399
-25.666
-24.839
-23.919
-22.905
-21.799
-20.602
-19.319
-17.954
-16.513
-15.003
-13.431
-11.806
-10.137
-8.433
-6.703
-4.958
-3.21
-1.472
0.245
1.925
3.555
5.119
6.6
7.982
9.252
10.398
11.406
12.264
12.959
13.473
13.793
13.907
13.807
13.483
12.935
12.165
11.183
10.015
8.685
7.22
5.644
3.973
2.232
0.444
-1.363
-3.158
-4.906
-6.584
-8.162
-9.615
-10.936
-12.127
-13.215
-14.269
-15.357
-16.548
-17.904
-19.463
-21.271
-23.39
-25.882
-28.808
-32.216
-36.132
-40.61
-45.727
-51.475
-57.732
-64.222
-70.524
-76.244
-81.057
-84.595
-86.426
-86.216
-83.95
-80.021
-75.13
-69.977
-64.996
-60.578
-57.263
-55.44
-55.089
-55.255
-54.182
-50.393
-41.091
-23.477
3.248
41.51
87.998
135.549
185.114
235.613
293.703
374.369
473.152
580.564
678.529
733.232
731.863
672.484
559.995
421.911
278.664
147.567
49.731
-12.385
-40.524
-41.618
-34.827
-29.318
-28.366
-32.224
-32.734
-27.53
-19.558
-11.314
-7.156
-8.728
-14.359
-22.509
-31.643
-40.143
-46.948
-51.528
-53.611
-53.41
-51.558
-48.632
-45.132
-41.681
-38.826
-36.841
-35.866
-35.847
-36.59
-37.968
-39.861
-42.12
-44.603
-47.188
-49.779
-52.313
-54.736
-56.975
-58.941
-60.548
-61.738
-62.489
-62.793
-62.661
-62.11
-61.161
-59.852
-58.232
-56.347
-54.242
-51.964
-49.549
-47.046
-44.502
-41.966
-39.487
-37.098
-34.821
-32.671
-30.658
-28.784
-27.05
-25.454
-23.984
-22.634
-21.4
-20.274
-19.255
-18.335
-17.505
-16.756
-16.077
-15.458
-14.892
-14.371
-13.885
-13.427
-12.988
-12.561
-12.138
-11.71
-11.267
-10.798
-10.291
-9.735
-9.119
-8.432
-7.663
-6.802
-5.84
-4.77
-3.582
-2.271
-0.829
0.749
2.468
4.332
6.345
8.508
10.823
13.289
15.907
18.674
21.588
24.646
27.843
31.175
34.635
38.216
41.911
45.709
49.602
53.577
57.624
61.729
65.878
70.059
74.256
78.454
82.637
86.789
90.895
94.938
98.901
102.768
106.523
110.15
113.632
116.955
120.103
123.061
125.815
128.351
130.657
132.72
134.528
136.071
137.339
138.323
139.015
139.409
139.5
139.284
138.758
137.923
136.778
135.325
133.569
131.513
129.165
126.532
123.623
120.448
117.02
113.35
109.453
105.342
101.035
96.547
91.895
87.097
82.171
77.135
72.009
66.811
61.562
56.28
50.986
45.698
40.437
35.22
30.067
24.994
20.018
15.156
10.423
5.833
1.398
-2.869
-6.957
-10.858
-14.563
-18.065
-21.359
-24.44
-27.306
-29.955
-32.386
-34.6
-36.598
-38.383
-39.959
-41.331
-42.503
-43.482
-44.276
-44.892
-45.339
-45.626
-45.764
-45.762
-45.631
-45.382
-45.026
-44.575
-44.039
-43.43
-42.758
-42.035
-41.271
-40.477
-39.661
-38.832
-38.001
-37.174
-36.359
-35.563
-34.792
-34.052
-33.347
-32.682
-32.062
-31.489
-30.967
-30.497
-30.083
-29.725
-29.425
-29.183
-28.999
-28.873
-28.805
-28.793
-28.836
-28.932
-29.081
-29.279
-29.526
-29.818
-30.153
-30.529
-30.942
-31.392
-31.874
-32.387
-32.928
-33.496
-34.087
-34.701
-35.335
-35.988
-36.658
-37.343
-38.042
-38.752
-39.473
-40.202
-40.937
-41.677
-42.42
-43.165
-43.908
-44.649
-45.384
-46.113
-46.832
-47.541
-48.236
-48.916
-49.58
-50.224
-50.848
-51.45
-52.029
-52.582
-53.11
-53.609
-54.08
-54.521
-54.931
-55.309
-55.653
-55.964
-56.242
-56.485
-56.695
-56.871
-57.015
-57.128
-57.211
-57.265
-57.295
-57.3
-57.286
-57.255
-57.21
-57.155
-57.095
-57.033
-56.972
-56.918
-56.873
-56.841
-56.825
-56.828
-56.852
-56.901
-56.977
-57.081
-57.214
-57.379
-57.574
-57.802
-58.06
-58.347
-58.663
-59.004
-59.368
-59.752
-60.152
-60.562
-60.979
-61.396
-61.806
-62.203
-62.578
-62.923
-63.229
-63.487
-63.688
-63.823
-63.883
-63.86
-63.745
-63.531
-63.21
-62.777
-62.224
-61.547
-60.741
-59.805
-58.734
-57.528
-56.189
-54.717
-53.118
-51.395
-49.555
-47.605
-45.553
-43.41
-41.187
-38.894
-36.545
-34.153
-31.733
-29.301
-26.873
-24.468
-22.103
-19.797
-17.569
-15.441
-13.429
-11.553
-9.825
-8.262
-6.875
-5.68
-4.692
-3.925
-3.387
-3.089
-3.038
-3.238
-3.689
-4.383
-5.298
-6.41
-7.695
-9.13
-10.695
-12.37
-14.132
-15.954
-17.803
-19.645
-21.455
-23.207
-24.871
-26.432
-27.872
-29.197
-30.466
-31.734
-33.062
-34.502
-36.068
-37.784
-39.705
-41.87
-44.336
-47.168
-50.378
-54.032
-58.256
-63.038
-68.296
-73.811
-79.091
-83.637
-87.054
-88.791
-88.323
-85.558
-80.619
-74.089
-67.193
-61.03
-56.537
-54.862
-56.804
-62.129
-69.972
-78.552
-84.795
-85.581
-77.801
-57.938
-24.422
21.385
77.638
142.776
217.836
305.692
404.482
504.096
585.85
632.021
634.765
598.141
537.271
463.735
380.516
288.22
187.626
89.506
10.917
-37.13
-53.711
-50.718
-42.917
-38.838
-39.851
-40.446
-36.999
-30.544
-23.649
-20.023
-21.137
-25.878
-32.929
-40.936
-48.529
-54.658
-58.721
-60.454
-60.086
-58.226
-55.421
-52.126
-48.877
-46.183
-44.33
-43.459
-43.539
-44.386
-45.867
-47.864
-50.225
-52.808
-55.488
-58.169
-60.776
-63.239
-65.47
-67.369
-68.871
-69.934
-70.545
-70.704
-70.417
-69.705
-68.603
-67.162
-65.431
-63.453
-61.276
-58.942
-56.499
-54.001
-51.5
-49.047
-46.679
-44.423
-42.295
-40.307
-38.467
-36.773
-35.221
-33.802
-32.508
-31.335
-30.276
-29.327
-28.48
-27.725
-27.051
-26.448
-25.905
-25.413
-24.962
-24.544
-24.149
-23.77
-23.397
-23.024
-22.639
-22.231
-21.788
-21.295
-20.741
-20.113
-19.4
-18.591
-17.677
-16.65
-15.505
-14.237
-12.84
-11.308
-9.635
-7.815
-5.845
-3.718
-1.431
1.018
3.632
6.407
9.339
12.423
15.654
19.029
22.548
26.205
29.99
33.893
37.904
42.005
46.177
50.393
54.615
58.813
62.964
67.052
71.067
75
78.84
82.578
86.209
89.728
93.137
96.433
99.609
102.668
105.624
108.502
111.346
114.183
117.019
119.851
122.665
125.442
128.167
130.806
133.314
135.647
137.761
139.617
141.183
142.41
143.233
143.582
143.374
142.55
141.081
138.945
136.133
132.648
128.492
123.695
118.309
112.385
105.974
99.137
91.933
84.449
76.8
69.089
61.423
53.89
46.555
39.482
32.727
26.34
20.365
14.833
9.76
5.16
1.047
-2.587
-5.762
-8.522
-10.942
-13.082
-14.99
-16.71
-18.268
-19.694
-21.016
-22.259
-23.442
-24.587
-25.72
-26.864
-28.041
-29.257
-30.502
-31.75
-32.96
-34.098
-35.145
-36.084
-36.908
-37.614
-38.199
-38.668
-39.029
-39.284
-39.427
-39.455
-39.361
-39.151
-38.838
-38.443
-37.991
-37.507
-37.009
-36.514
-36.034
-35.576
-35.146
-34.744
-34.366
-34.013
-33.689
-33.395
-33.138
-32.919
-32.736
-32.587
-32.47
-32.379
-32.31
-32.258
-32.219
-32.19
-32.17
-32.159
-32.157
-32.163
-32.178
-32.2
-32.229
-32.26
-32.294
-32.326
-32.355
-32.377
-32.393
-32.4
-32.397
-32.385
-32.363
-32.331
-32.289
-32.238
-32.177
-32.108
-32.03
-31.943
-31.85
-31.75
-31.644
-31.534
-31.42
-31.305
-31.188
-31.072
-30.956
-30.841
-30.728
-30.616
-30.507
-30.401
-30.298
-30.2
-30.107
-30.021
-29.943
-29.876
-29.822
-29.781
-29.755
-29.746
-29.753
-29.779
-29.824
-29.888
-29.973
-30.08
-30.21
-30.364
-30.543
-30.747
-30.978
-31.236
-31.521
-31.833
-32.173
-32.542
-32.939
-33.366
-33.823
-34.311
-34.829
-35.378
-35.957
-36.565
-37.201
-37.86
-38.54
-39.237
-39.946
-40.663
-41.385
-42.108
-42.826
-43.536
-44.235
-44.919
-45.585
-46.225
-46.834
-47.405
-47.93
-48.402
-48.813
-49.156
-49.421
-49.602
-49.695
-49.695
-49.595
-49.388
-49.061
-48.608
-48.027
-47.317
-46.48
-45.521
-44.444
-43.263
-41.999
-40.674
-39.306
-37.908
-36.48
-35.025
-33.551
-32.064
-30.575
-29.083
-27.573
-26.037
-24.468
-22.857
-21.199
-19.468
-17.62
-15.622
-13.453
-11.109
-8.615
-5.989
-3.249
-0.424
2.452
5.325
8.117
10.764
13.215
15.412
17.307
18.83
19.882
20.394
20.322
19.649
18.4
16.596
14.261
11.441
8.195
4.61
0.8
-3.138
-7.118
-11.052
-14.861
-18.452
-21.709
-24.555
-26.958
-28.918
-30.49
-31.721
-32.639
-33.297
-33.771
-34.157
-34.583
-35.175
-36.006
-37.186
-38.883
-41.183
-44.113
-47.57
-51.182
-54.512
-57.203
-58.78
-58.686
-56.683
-52.804
-47.429
-41.676
-36.776
-33.551
-32.989
-36.302
-43.726
-54.628
-68.031
-79.817
-85.42
-83.199
-69.379
-44.599
-13.361
27.312
78.017
144.275
238.872
357.945
490.429
614.953
696.612
720.575
688.407
612.646
520.873
427.839
334.051
241.398
149.743
64.968
1.998
-34.044
-48.298
-47.419
-42.661
-39.696
-35.466
-29.615
-22.573
-15.379
-11.948
-13.726
-19.733
-28.832
-39.222
-49.065
-57.081
-62.504
-64.996
-64.722
-62.25
-58.165
-53.008
-47.447
-42.145
-37.494
-33.706
-30.84
-28.784
-27.465
-26.84
-26.795
-27.199
-27.96
-28.989
-30.227
-31.661
-33.235
-34.882
-36.564
-38.217
-39.789
-41.248
-42.532
-43.579
-44.361
-44.86
-45.078
-45.041
-44.769
-44.28
-43.609
-42.776
-41.806
-40.717
-39.501
-38.166
-36.727
-35.204
-33.636
-32.071
-30.538
-29.059
-27.654
-26.325
-25.077
-23.912
-22.82
-21.79
-20.819
-19.906
-19.06
-18.293
-17.6
-16.97
-16.387
-15.822
-15.256
-14.67
-14.043
-13.358
-12.604
-11.767
-10.844
-9.834
-8.729
-7.522
-6.203
-4.758
-3.181
-1.464
0.395
2.4
4.551
6.851
9.296
11.886
14.619
17.494
20.511
23.669
26.967
30.401
33.965
37.654
41.461
45.376
49.39
53.493
57.672
61.915
66.211
70.547
74.909
79.284
83.656
88.012
92.336
96.613
100.826
104.96
108.999
112.927
116.728
120.386
123.886
127.213
130.353
133.292
136.016
138.512
140.769
142.775
144.52
145.994
147.188
148.096
148.711
149.029
149.045
148.757
148.164
147.266
146.064
144.562
142.762
140.669
138.291
135.634
132.708
129.522
126.089
122.419
118.527
114.426
110.133
105.662
101.031
96.257
91.357
86.349
81.252
76.085
70.865
65.612
60.345
55.082
49.841
44.64
39.496
34.427
29.448
24.576
19.824
15.207
10.737
6.427
2.288
-1.671
-5.44
-9.014
-12.385
-15.548
-18.5
-21.239
-23.763
-26.072
-28.167
-30.051
-31.725
-33.195
-34.465
-35.541
-36.43
-37.138
-37.675
-38.048
-38.267
-38.341
-38.282
-38.098
-37.801
-37.401
-36.911
-36.34
-35.701
-35.004
-34.261
-33.483
-32.679
-31.86
-31.036
-30.215
-29.407
-28.618
-27.857
-27.129
-26.44
-25.795
-25.2
-24.657
-24.171
-23.743
-23.375
-23.07
-22.828
-22.65
-22.534
-22.481
-22.49
-22.559
-22.685
-22.868
-23.103
-23.389
-23.722
-24.098
-24.513
-24.963
-25.444
-25.95
-26.478
-27.023
-27.579
-28.144
-28.712
-29.281
-29.846
-30.404
-30.952
-31.487
-32.007
-32.511
-32.996
-33.461
-33.904
-34.326
-34.726
-35.103
-35.457
-35.789
-36.099
-36.387
-36.655
-36.903
-37.131
-37.342
-37.537
-37.717
-37.885
-38.043
-38.194
-38.339
-38.483
-38.628
-38.776
-38.932
-39.097
-39.275
-39.467
-39.677
-39.907
-40.157
-40.431
-40.73
-41.053
-41.403
-41.78
-42.183
-42.613
-43.069
-43.551
-44.057
-44.588
-45.143
-45.72
-46.319
-46.938
-47.577
-48.232
-48.904
-49.59
-50.286
-50.992
-51.703
-52.417
-53.13
-53.839
-54.54
-55.23
-55.905
-56.561
-57.194
-57.802
-58.38
-58.926
-59.436
-59.909
-60.341
-60.732
-61.079
-61.382
-61.64
-61.851
-62.016
-62.134
-62.205
-62.228
-62.204
-62.132
-62.014
-61.849
-61.638
-61.384
-61.088
-60.751
-60.377
-59.968
-59.526
-59.056
-58.561
-58.046
-57.514
-56.969
-56.418
-55.864
-55.312
-54.768
-54.236
-53.72
-53.225
-52.755
-52.313
-51.903
-51.527
-51.19
-50.893
-50.639
-50.431
-50.271
-50.162
-50.105
-50.101
-50.152
-50.258
-50.42
-50.638
-50.91
-51.235
-51.612
-52.038
-52.511
-53.027
-53.583
-54.174
-54.795
-55.439
-56.102
-56.776
-57.454
-58.13
-58.794
-59.441
-60.063
-60.651
-61.201
-61.703
-62.15
-62.536
-62.852
-63.093
-63.25
-63.317
-63.287
-63.154
-62.913
-62.559
-62.089
-61.498
-60.784
-59.945
-58.98
-57.888
-56.67
-55.327
-53.861
-52.276
-50.577
-48.77
-46.864
-44.866
-42.787
-40.638
-38.431
-36.179
-33.896
-31.595
-29.292
-27.001
-24.736
-22.514
-20.348
-18.256
-16.252
-14.352
-12.57
-10.921
-9.421
-8.084
-6.922
-5.948
-5.168
-4.589
-4.216
-4.058
-4.122
-4.414
-4.935
-5.687
-6.669
-7.879
-9.311
-10.947
-12.755
-14.701
-16.754
-18.882
-21.063
-23.273
-25.479
-27.649
-29.748
-31.745
-33.616
-35.34
-36.884
-38.227
-39.359
-40.306
-41.14
-41.934
-42.756
-43.652
-44.642
-45.757
-47.05
-48.572
-50.377
-52.507
-54.963
-57.796
-61.128
-64.972
-69.218
-73.568
-77.445
-80.285
-81.667
-81.126
-78.229
-72.905
-65.376
-56.398
-47.434
-39.88
-34.874
-33.448
-36.048
-42.179
-50.702
-59.494
-65.119
-64.022
-52.674
-27.399
12.548
64.714
126.595
193.909
265.886
347.123
435.587
526.255
607.07
654.105
654.07
600.432
493.998
357.239
211.525
79.068
-14.459
-64.481
-75.342
-58.906
-38.53
-25.436
-21.928
-26.162
-29.146
-27.965
-25.041
-22.739
-24.66
-31.596
-41.528
-52.649
-63.155
-71.574
-77.424
-80.604
-81.175
-79.579
-76.404
-72.194
-67.561
-63.143
-59.318
-56.256
-54.026
-52.54
-51.705
-51.476
-51.76
-52.44
-53.433
-54.66
-56.068
-57.63
-59.287
-60.951
-62.54
-63.961
-65.133
-66.013
-66.571
-66.787
-66.666
-66.214
-65.452
-64.411
-63.133
-61.657
-60.022
-58.265
-56.421
-54.533
-52.643
-50.794
-49.025
-47.361
-45.819
-44.409
-43.134
-41.993
-40.986
-40.1
-39.324
-38.646
-38.057
-37.548
-37.111
-36.738
-36.416
-36.135
-35.884
-35.653
-35.434
-35.218
-34.995
-34.758
-34.498
-34.205
-33.872
-33.488
-33.045
-32.533
-31.94
-31.26
-30.483
-29.603
-28.615
-27.512
-26.289
-24.94
-23.459
-21.841
-20.08
-18.174
-16.116
-13.904
-11.535
-9.011
-6.336
-3.512
-0.541
2.578
5.848
9.266
12.824
16.516
20.331
24.254
28.266
32.338
36.432
40.518
44.576
48.591
52.558
56.472
60.324
64.11
67.826
71.47
75.044
78.545
81.963
85.304
88.581
91.827
95.095
98.415
101.792
105.224
108.685
112.145
115.57
118.908
122.092
125.063
127.768
130.167
132.24
133.945
135.229
136.025
136.243
135.821
134.731
132.955
130.496
127.379
123.637
119.339
114.583
109.452
104.013
98.321
92.41
86.332
80.151
73.938
67.777
61.737
55.863
50.201
44.785
39.631
34.741
30.092
25.632
21.327
17.158
13.115
9.205
5.425
1.766
-1.779
-5.216
-8.552
-11.789
-14.93
-17.981
-20.94
-23.795
-26.525
-29.097
-31.488
-33.686
-35.682
-37.475
-39.067
-40.456
-41.648
-42.653
-43.481
-44.139
-44.632
-44.964
-45.144
-45.18
-45.086
-44.875
-44.561
-44.154
-43.665
-43.104
-42.48
-41.802
-41.076
-40.307
-39.5
-38.661
-37.797
-36.916
-36.023
-35.126
-34.229
-33.339
-32.462
-31.602
-30.764
-29.95
-29.164
-28.409
-27.687
-27.001
-26.353
-25.744
-25.176
-24.649
-24.164
-23.722
-23.324
-22.969
-22.657
-22.389
-22.163
-21.979
-21.836
-21.733
-21.667
-21.639
-21.646
-21.686
-21.758
-21.859
-21.987
-22.14
-22.315
-22.51
-22.722
-22.949
-23.187
-23.435
-23.688
-23.946
-24.205
-24.463
-24.716
-24.964
-25.204
-25.432
-25.648
-25.849
-26.033
-26.198
-26.343
-26.465
-26.565
-26.64
-26.691
-26.717
-26.718
-26.694
-26.645
-26.573
-26.477
-26.359
-26.219
-26.059
-25.879
-25.682
-25.467
-25.238
-24.994
-24.739
-24.473
-24.198
-23.917
-23.629
-23.338
-23.043
-22.748
-22.453
-22.159
-21.867
-21.579
-21.295
-21.015
-20.741
-20.472
-20.208
-19.95
-19.695
-19.443
-19.195
-18.947
-18.699
-18.451
-18.199
-17.944
-17.683
-17.415
-17.14
-16.855
-16.559
-16.252
-15.932
-15.599
-15.251
-14.888
-14.51
-14.115
-13.705
-13.278
-12.835
-12.377
-11.903
-11.415
-10.914
-10.401
-9.877
-9.344
-8.803
-8.257
-7.708
-7.158
-6.609
-6.064
-5.526
-4.996
-4.478
-3.973
-3.484
-3.013
-2.562
-2.131
-1.722
-1.337
-0.975
-0.637
-0.324
-0.034
0.233
0.477
0.701
0.905
1.092
1.264
1.424
1.574
1.72
1.862
2.007
2.158
2.319
2.495
2.691
2.911
3.161
3.447
3.773
4.146
4.57
5.05
5.592
6.2
6.879
7.632
8.464
9.377
10.374
11.458
12.631
13.892
15.244
16.686
18.217
19.836
21.542
23.331
25.201
27.147
29.167
31.255
33.405
35.613
37.871
40.174
42.515
44.885
47.277
49.683
52.094
54.501
56.895
59.267
61.609
63.911
66.164
68.36
70.49
72.547
74.523
76.411
78.205
79.898
81.487
82.965
84.33
85.579
86.709
87.719
88.609
89.377
90.025
90.554
90.965
91.261
91.443
91.516
91.484
91.349
91.118
90.794
90.384
89.893
89.326
88.69
87.99
87.232
86.423
85.567
84.67
83.737
82.772
81.779
80.762
79.722
78.662
