Name
Date of Birth,"Jan 30, 1994"
Recorded Date,2025-04-26 16:34:38 -0700
Classification,Sinus Rhythm
Symptoms,
Software Version,1.90
Device,"Watch6,3"
Sample Rate,512 hertz


Lead,Lead I
Unit,µV

64.219
48.181
35.188
25.677
19.954
17.495
17.051
17.941
19.726
21.646
23.255
24.151
23.732
22.141
20.095
17.939
15.889
14.146
12.636
11.442
10.847
10.732
10.718
10.572
10.091
9.205
8.024
6.566
4.784
2.742
0.571
-1.623
-3.735
-5.728
-7.626
-9.432
-11.124
-12.677
-14.062
-15.267
-16.289
-17.127
-17.775
-18.24
-18.54
-18.715
-18.817
-18.882
-18.936
-18.992
-19.06
-19.147
-19.258
-19.395
-19.555
-19.737
-19.943
-20.177
-20.443
-20.742
-21.07
-21.418
-21.78
-22.147
-22.516
-22.883
-23.244
-23.599
-23.949
-24.295
-24.644
-24.996
-25.352
-25.713
-26.078
-26.445
-26.813
-27.182
-27.549
-27.91
-28.266
-28.613
-28.952
-29.279
-29.593
-29.892
-30.172
-30.432
-30.669
-30.881
-31.066
-31.221
-31.344
-31.434
-31.49
-31.509
-31.492
-31.436
-31.341
-31.207
-31.031
-30.814
-30.555
-30.252
-29.906
-29.516
-29.083
-28.607
-28.089
-27.529
-26.93
-26.294
-25.622
-24.918
-24.184
-23.424
-22.642
-21.842
-21.03
-20.21
-19.387
-18.566
-17.754
-16.956
-16.176
-15.42
-14.693
-13.999
-13.345
-12.733
-12.168
-11.655
-11.196
-10.795
-10.454
-10.177
-9.964
-9.818
-9.739
-9.727
-9.784
-9.91
-10.102
-10.36
-10.682
-11.065
-11.505
-11.999
-12.541
-13.124
-13.744
-14.393
-15.065
-15.752
-16.446
-17.14
-17.827
-18.5
-19.151
-19.775
-20.363
-20.909
-21.408
-21.855
-22.245
-22.575
-22.841
-23.04
-23.175
-23.245
-23.254
-23.202
-23.092
-22.927
-22.713
-22.453
-22.149
-21.805
-21.426
-21.018
-20.59
-20.153
-19.717
-19.289
-18.881
-18.502
-18.165
-17.876
-17.638
-17.454
-17.334
-17.29
-17.341
-17.501
-17.776
-18.17
-18.689
-19.327
-20.08
-20.93
-21.845
-22.801
-23.778
-24.764
-25.753
-26.729
-27.659
-28.505
-29.238
-29.833
-30.28
-30.563
-30.663
-30.6
-30.409
-30.154
-29.909
-29.706
-29.572
-29.552
-29.698
-30.092
-30.834
-31.98
-33.6
-35.796
-38.546
-41.77
-45.298
-48.731
-51.705
-53.933
-55.022
-54.701
-53.056
-50.33
-47.061
-44.143
-42.155
-41.539
-42.929
-46.448
-51.541
-57.179
-61.608
-62.775
-59.092
-48.917
-30.334
-2.248
35.411
81.648
134.275
190.782
248.462
303.813
352.642
391.029
416.005
425.864
419.844
397.61
360.031
309.477
249.653
185.168
120.244
58.467
3.476
-41.456
-74.482
-95.092
-104.235
-104.219
-97.317
-85.841
-72.743
-60.654
-51.263
-45.56
-43.546
-44.414
-47.435
-51.71
-55.919
-59.098
-60.748
-60.68
-59.182
-56.759
-53.795
-50.754
-48.202
-46.471
-45.721
-45.987
-47.116
-48.934
-51.318
-54.104
-57.105
-60.189
-63.233
-66.121
-68.795
-71.196
-73.27
-74.992
-76.346
-77.324
-77.939
-78.219
-78.194
-77.905
-77.389
-76.68
-75.816
-74.84
-73.798
-72.747
-71.726
-70.764
-69.882
-69.093
-68.408
-67.832
-67.361
-66.982
-66.68
-66.446
-66.272
-66.152
-66.08
-66.041
-66.024
-66.015
-66.004
-65.981
-65.939
-65.868
-65.76
-65.608
-65.407
-65.156
-64.85
-64.482
-64.045
-63.533
-62.94
-62.26
-61.489
-60.62
-59.649
-58.572
-57.386
-56.092
-54.688
-53.173
-51.548
-49.814
-47.974
-46.03
-43.986
-41.847
-39.615
-37.298
-34.9
-32.428
-29.889
-27.289
-24.636
-21.936
-19.198
-16.431
-13.642
-10.84
-8.034
-5.232
-2.444
0.32
3.053
5.745
8.386
10.967
13.479
15.913
18.261
20.513
22.664
24.704
26.628
28.429
30.102
31.641
33.042
34.301
35.415
36.38
37.195
37.857
38.365
38.718
38.917
38.961
38.852
38.59
38.179
37.622
36.921
36.08
35.104
33.999
32.769
31.421
29.961
28.398
26.738
24.991
23.164
21.268
19.31
17.302
15.251
13.168
11.063
8.944
6.82
4.702
2.597
0.514
-1.538
-3.552
-5.518
-7.431
-9.283
-11.068
-12.779
-14.412
-15.961
-17.423
-18.794
-20.071
-21.251
-22.333
-23.314
-24.194
-24.974
-25.652
-26.231
-26.712
-27.098
-27.39
-27.594
-27.712
-27.748
-27.707
-27.594
-27.414
-27.172
-26.873
-26.522
-26.126
-25.69
-25.22
-24.721
-24.2
-23.661
-23.111
-22.554
-21.995
-21.438
-20.889
-20.349
-19.824
-19.316
-18.83
-18.367
-17.93
-17.523
-17.147
-16.804
-16.496
-16.223
-15.986
-15.786
-15.622
-15.495
-15.403
-15.346
-15.323
-15.333
-15.374
-15.444
-15.541
-15.663
-15.806
-15.969
-16.149
-16.341
-16.544
-16.755
-16.971
-17.19
-17.41
-17.628
-17.842
-18.051
-18.253
-18.444
-18.625
-18.791
-18.943
-19.078
-19.195
-19.291
-19.368
-19.422
-19.455
-19.465
-19.451
-19.414
-19.354
-19.27
-19.164
-19.035
-18.886
-18.719
-18.534
-18.334
-18.123
-17.902
-17.674
-17.442
-17.209
-16.977
-16.747
-16.523
-16.306
-16.099
-15.902
-15.719
-15.551
-15.4
-15.268
-15.157
-15.069
-15.005
-14.965
-14.952
-14.966
-15.008
-15.079
-15.178
-15.307
-15.464
-15.651
-15.865
-16.106
-16.372
-16.659
-16.964
-17.284
-17.615
-17.952
-18.29
-18.625
-18.951
-19.265
-19.561
-19.836
-20.084
-20.3
-20.48
-20.617
-20.708
-20.748
-20.73
-20.651
-20.506
-20.29
-20.001
-19.633
-19.182
-18.646
-18.019
-17.3
-16.486
-15.575
-14.565
-13.456
-12.247
-10.943
-9.544
-8.055
-6.482
-4.829
-3.104
-1.317
0.524
2.41
4.331
6.278
8.241
10.209
12.175
14.13
16.063
17.964
19.822
21.622
23.355
25.007
26.564
28.016
29.349
30.554
31.63
32.57
33.362
33.994
34.447
34.707
34.772
34.638
34.305
33.779
33.074
32.22
31.263
30.24
29.177
28.092
26.991
25.893
24.835
23.854
22.993
22.279
21.716
21.319
21.113
21.087
21.201
21.363
21.449
21.37
21.085
20.575
19.825
18.769
17.318
15.382
12.89
9.857
6.304
2.175
-2.487
-7.518
-12.641
-17.299
-20.952
-23.435
-24.599
-24.288
-22.702
-19.921
-16.059
-11.928
-8.103
-4.556
-1.474
1.381
5.038
9.932
16.498
26.353
40.511
59.446
84.698
116.931
155.25
199.681
248.511
296.779
342.557
384.762
422.119
458.106
490.874
512.442
515.23
488.091
425.753
333.784
222.67
110.578
17.528
-44.089
-69.637
-65.585
-47.232
-27.543
-14.258
-8.217
-3.979
1.753
8.959
15.787
18.719
16.783
11.503
4.668
-1.55
-5.891
-8.225
-8.471
-6.808
-3.781
0.083
4.139
7.676
10.349
12.056
12.763
12.594
11.688
10.159
8.186
5.954
3.589
1.197
-1.135
-3.326
-5.281
-6.925
-8.207
-9.098
-9.595
-9.701
-9.426
-8.802
-7.866
-6.655
-5.207
-3.553
-1.726
0.23
2.267
4.327
6.363
8.345
10.246
12.048
13.739
15.315
16.776
18.135
19.403
20.586
21.686
22.707
23.651
24.527
25.346
26.115
26.843
27.535
28.2
28.844
29.474
30.095
30.709
31.318
31.926
32.54
33.165
33.808
34.476
35.173
35.905
36.68
37.503
38.376
39.303
40.286
41.327
42.427
43.587
44.809
46.09
47.431
48.831
50.288
51.799
53.362
54.972
56.627
58.321
60.049
61.806
63.586
65.382
67.186
68.993
70.794
72.581
74.346
76.081
77.777
79.424
81.015
82.54
83.991
85.358
86.635
87.814
88.887
89.848
90.69
91.407
91.993
92.445
92.755
92.922
92.939
92.806
92.518
92.074
91.472
90.713
89.796
88.722
87.493
86.109
84.575
82.892
81.066
79.099
76.998
74.768
72.416
69.948
67.372
64.695
61.925
59.072
56.144
53.148
50.096
46.995
43.856
40.688
37.5
34.303
31.106
27.919
24.751
21.613
18.512
15.459
12.46
9.525
6.662
3.877
1.178
-1.429
-3.938
-6.343
-8.639
-10.822
-12.887
-14.832
-16.652
-18.348
-19.915
-21.354
-22.664
-23.844
-24.896
-25.819
-26.615
-27.287
-27.836
-28.266
-28.58
-28.782
-28.878
-28.871
-28.768
-28.575
-28.297
-27.941
-27.513
-27.021
-26.47
-25.87
-25.225
-24.545
-23.836
-23.106
-22.361
-21.61
-20.859
-20.115
-19.384
-18.673
-17.988
-17.335
-16.72
-16.147
-15.621
-15.149
-14.733
-14.378
-14.088
-13.864
-13.709
-13.624
-13.611
-13.669
-13.799
-13.999
-14.27
-14.607
-15.011
-15.477
-16.002
-16.583
-17.216
-17.896
-18.619
-19.379
-20.171
-20.99
-21.831
-22.689
-23.557
-24.431
-25.305
-26.175
-27.035
-27.881
-28.706
-29.507
-30.279
-31.018
-31.721
-32.384
-33.005
-33.581
-34.11
-34.592
-35.024
-35.408
-35.741
-36.026
-36.263
-36.452
-36.597
-36.699
-36.761
-36.786
-36.778
-36.74
-36.676
-36.589
-36.483
-36.363
-36.232
-36.095
-35.954
-35.813
-35.677
-35.549
-35.431
-35.328
-35.242
-35.174
-35.128
-35.105
-35.106
-35.132
-35.184
-35.262
-35.366
-35.496
-35.652
-35.832
-36.034
-36.258
-36.499
-36.757
-37.027
-37.305
-37.589
-37.872
-38.151
-38.422
-38.68
-38.92
-39.136
-39.323
-39.478
-39.594
-39.666
-39.691
-39.661
-39.574
-39.425
-39.211
-38.929
-38.574
-38.143
-37.635
-37.047
-36.378
-35.627
-34.791
-33.871
-32.867
-31.78
-30.612
-29.364
-28.041
-26.645
-25.183
-23.662
-22.087
-20.466
-18.808
-17.12
-15.413
-13.694
-11.971
-10.253
-8.548
-6.866
-5.218
-3.614
-2.063
-0.576
0.834
2.155
3.374
4.483
5.48
6.359
7.111
7.722
8.178
8.471
8.598
8.559
8.348
7.967
7.424
6.739
5.954
5.103
4.211
3.293
2.357
1.423
0.525
-0.296
-1.013
-1.612
-2.096
-2.457
-2.675
-2.749
-2.716
-2.652
-2.671
-2.859
-3.258
-3.899
-4.792
-5.978
-7.538
-9.545
-12.04
-15.037
-18.486
-22.377
-26.788
-31.645
-36.706
-41.605
-45.757
-48.67
-50.215
-50.263
-48.602
-45.321
-40.604
-34.834
-29.053
-24.254
-20.727
-18.503
-17.31
-16.291
-14.554
-11.075
-4.045
8.984
29.992
59.918
99.104
145.279
193.943
243.429
292.472
340.556
390.801
437.98
470.815
479.615
452.595
390.682
307.536
216.352
132.339
62.882
5.906
-39.184
-73.406
-96.095
-103.687
-96.396
-77.437
-51.257
-23.863
0.741
20.657
34.213
40.295
38.554
29.647
15.851
0.522
-14.106
-26.938
-37.252
-44.631
-48.507
-48.702
-46.142
-42.485
-38.902
-35.935
-33.767
-32.357
-31.952
-32.796
-34.692
-37.115
-39.603
-41.893
-43.912
-45.735
-47.331
-48.584
-49.453
-49.963
-50.171
-50.133
-49.861
-49.317
-48.482
-47.371
-46.008
-44.437
-42.702
-40.837
-38.887
-36.887
-34.867
-32.857
-30.884
-28.968
-27.123
-25.355
-23.663
-22.052
-20.529
-19.099
-17.762
-16.513
-15.343
-14.246
-13.215
-12.244
-11.328
-10.459
-9.632
-8.841
-8.081
-7.348
-6.64
-5.953
-5.279
-4.611
-3.942
-3.264
-2.572
-1.857
-1.111
-0.326
0.506
1.39
2.334
3.343
4.424
5.583
6.824
8.152
9.572
11.085
12.696
14.404
16.212
18.118
20.121
22.218
24.406
26.681
29.038
31.471
33.973
36.538
39.158
41.824
44.526
47.255
50
52.75
55.493
58.217
60.911
63.561
66.155
68.68
71.125
73.477
75.723
77.852
79.851
81.71
83.417
84.962
86.336
87.529
88.535
89.346
89.956
90.363
90.561
90.55
90.329
89.897
89.257
88.412
87.365
86.121
84.689
83.074
81.287
79.337
77.235
74.992
72.622
70.136
67.549
64.875
62.127
59.32
56.47
53.59
50.696
47.802
44.922
42.071
39.261
36.506
33.818
31.207
28.683
26.256
23.933
21.721
19.626
17.651
15.8
14.074
12.473
10.998
9.645
8.411
7.291
6.279
5.369
4.552
3.82
3.164
2.574
2.04
1.552
1.1
0.673
0.259
-0.15
-0.567
-1.001
-1.462
-1.96
-2.504
-3.101
-3.76
-4.486
-5.285
-6.163
-7.123
-8.168
-9.299
-10.518
-11.825
-13.219
-14.697
-16.256
-17.892
-19.6
-21.374
-23.207
-25.092
-27.021
-28.987
-30.981
-32.995
-35.022
-37.053
-39.079
-41.094
-43.089
-45.056
-46.988
-48.879
-50.721
-52.509
-54.237
-55.902
-57.5
-59.027
-60.481
-61.861
-63.165
-64.394
-65.547
-66.625
-67.63
-68.565
-69.432
-70.235
-70.979
-71.667
-72.305
-72.898
-73.45
-73.966
-74.449
-74.903
-75.333
-75.743
-76.136
-76.515
-76.885
-77.248
-77.61
-77.972
-78.338
-78.708
-79.084
-79.467
-79.857
-80.254
-80.656
-81.063
-81.474
-81.888
-82.303
-82.716
-83.127
-83.53
-83.923
-84.303
-84.666
-85.008
-85.326
-85.617
-85.88
-86.114
-86.319
-86.494
-86.64
-86.755
-86.839
-86.894
-86.916
-86.905
-86.856
-86.768
-86.642
-86.476
-86.272
-86.029
-85.75
-85.439
-85.1
-84.737
-84.352
-83.945
-83.515
-83.062
-82.584
-82.082
-81.552
-80.992
-80.402
-79.783
-79.141
-78.479
-77.794
-77.08
-76.325
-75.524
-74.679
-73.79
-72.86
-71.899
-70.923
-69.963
-69.064
-68.257
-67.558
-66.973
-66.491
-66.103
-65.801
-65.569
-65.39
-65.249
-65.122
-64.997
-64.869
-64.711
-64.481
-64.116
-63.519
-62.624
-61.4
-59.83
-57.93
-55.739
-53.303
-50.704
-48.04
-45.389
-42.826
-40.409
-38.163
-36.136
-34.383
-32.962
-31.981
-31.517
-31.606
-32.28
-33.52
-35.264
-37.441
-39.933
-42.594
-45.318
-48.004
-50.571
-53.005
-55.291
-57.441
-59.503
-61.46
-63.305
-65.043
-66.649
-68.159
-69.672
-71.279
-73.099
-75.23
-77.668
-80.461
-83.707
-87.333
-91.147
-94.753
-97.521
-99.079
-99.331
-98.201
-95.577
-91.332
-85.478
-78.517
-71.516
-65.294
-60.02
-55.29
-50.57
-45.563
-39.642
-31.693
-19.944
-1.953
23.859
57.265
97.999
144.385
191.637
237.525
280.574
319.521
359.886
401.127
433.135
444.684
417.778
344.132
236.097
113.655
5.27
-66.95
-100.855
-104.577
-95.279
-88.17
-86.689
-88.725
-87.885
-79.912
-66.995
-52.938
-41.717
-35.567
-33.994
-35.652
-39.36
-43.958
-48.148
-51.188
-52.733
-52.694
-51.498
-49.588
-47.224
-44.834
-42.94
-41.816
-41.607
-42.304
-43.679
-45.565
-47.855
-50.378
-52.983
-55.539
-57.912
-60.029
-61.86
-63.369
-64.537
-65.351
-65.799
-65.891
-65.648
-65.094
-64.265
-63.192
-61.903
-60.435
-58.824
-57.113
-55.354
-53.585
-51.832
-50.119
-48.456
-46.855
-45.325
-43.863
-42.461
-41.112
-39.805
-38.537
-37.303
-36.1
-34.918
-33.748
-32.579
-31.402
-30.212
-29.002
-27.765
-26.496
-25.189
-23.842
-22.453
-21.02
-19.538
-18.004
-16.411
-14.755
-13.032
-11.239
-9.37
-7.422
-5.393
-3.282
-1.087
1.19
3.551
5.993
8.516
11.118
13.795
16.545
19.365
22.25
25.195
28.197
31.248
34.344
37.477
40.641
43.83
47.036
50.251
53.468
56.68
59.879
63.057
66.205
69.316
72.382
75.393
78.343
81.223
84.025
86.742
89.366
91.892
94.312
96.622
98.815
100.886
102.831
104.645
106.324
107.864
109.263
110.517
111.623
112.58
113.387
114.042
114.544
114.894
115.091
115.136
115.029
114.773
114.369
113.82
113.128
112.296
111.328
110.228
109.001
107.652
106.187
104.61
102.928
101.148
99.276
97.318
95.282
93.176
91.006
88.78
86.507
84.194
81.849
79.48
77.096
74.704
72.314
69.932
67.568
65.228
62.921
60.654
58.435
56.271
54.169
52.135
50.176
48.297
46.504
44.802
43.195
41.688
40.282
38.982
37.788
36.704
35.73
34.866
34.112
33.469
32.934
32.506
32.183
31.963
31.841
31.813
31.877
32.027
32.257
32.563
32.939
33.378
33.874
34.42
35.01
35.636
36.291
36.968
37.659
38.358
39.056
39.748
40.427
41.086
41.72
42.323
42.89
43.416
43.897
44.33
44.71
45.035
45.303
45.511
45.659
45.744
45.768
45.729
45.628
45.466
45.246
44.967
44.634
44.247
43.811
43.329
42.804
42.24
41.642
41.013
40.358
39.681
38.986
38.277
37.558
36.832
36.103
35.372
34.644
33.919
33.2
32.488
31.784
31.088
30.402
29.725
29.056
28.397
27.745
27.1
26.46
25.825
25.192
24.559
23.925
23.286
22.64
21.984
21.317
20.634
19.934
19.214
18.472
17.707
16.917
16.101
15.258
14.387
13.489
12.566
11.618
10.647
9.654
8.644
7.619
6.582
5.538
4.489
3.439
2.393
1.354
0.327
-0.685
-1.678
-2.649
-3.593
-4.507
-5.386
-6.229
-7.032
-7.792
-8.508
-9.178
-9.801
-10.381
-10.92
-11.421
-11.887
-12.322
-12.731
-13.119
-13.491
-13.85
-14.197
-14.538
-14.879
-15.229
-15.594
-15.983
-16.403
-16.863
-17.369
-17.928
-18.545
-19.218
-19.952
-20.751
-21.626
-22.59
-23.658
-24.833
-26.122
-27.52
-29.017
-30.596
-32.231
-33.883
-35.516
-37.103
-38.614
-40.029
-41.317
-42.443
-43.378
-44.085
-44.533
-44.701
-44.572
-44.151
-43.484
-42.629
-41.662
-40.67
-39.712
-38.855
-38.184
-37.78
-37.744
-38.167
-39.08
-40.532
-42.612
-45.307
-48.512
-51.985
-55.271
-57.924
-59.619
-60.069
-59.039
-56.566
-52.842
-48.299
-43.756
-39.971
-37.523
-36.705
-37.348
-38.668
-39.558
-38.598
-33.83
-23.291
-5.044
22.4
59.411
105.263
158.488
216.814
276.954
335.092
386.701
427.251
453.473
463.137
454.974
429.214
387.586
333.001
269.955
203.681
138.809
79.729
30.17
-7.738
-33.153
-46.425
-49.535
-45.265
-36.398
-26.082
-17.062
-10.92
-8.578
-10.218
-15.073
-22.077
-30.051
-37.498
-43.325
-47.099
-48.637
-48.139
-46.126
-43.089
-39.602
-36.338
-33.68
-31.775
-30.684
-30.303
-30.516
-31.252
-32.372
-33.713
-35.178
-36.677
-38.141
-39.523
-40.722
-41.633
-42.19
-42.342
-42.073
-41.39
-40.293
-38.793
-36.927
-34.732
-32.253
-29.535
-26.607
-23.508
-20.283
-16.986
-13.681
-10.418
-7.235
-4.162
-1.22
1.577
4.219
6.702
9.035
11.224
13.273
15.184
16.956
18.593
20.101
21.489
22.767
23.943
25.023
26.014
26.924
27.76
28.527
29.229
29.869
30.452
30.984
31.472
31.924
32.346
32.746
33.129
33.503
33.873
34.245
34.621
35.005
35.398
35.803
36.222
36.654
37.099
37.556
38.025
38.502
38.986
39.474
39.963
40.448
40.927
41.396
41.851
42.29
42.708
43.101
43.468
43.805
44.108
44.374
44.601
44.787
44.927
45.022
45.068
45.064
45.008
44.901
44.743
44.532
44.271
43.96
43.6
43.194
42.745
42.254
41.725
41.162
40.569
39.949
39.306
38.646
37.971
37.286
36.593
35.898
35.203
34.51
33.824
33.146
32.479
31.827
31.19
30.572
29.975
29.4
28.85
28.325
27.827
27.358
26.919
26.511
26.135
25.792
25.483
25.207
24.964
24.753
24.575
24.426
24.305
24.21
24.138
24.088
24.057
24.043
24.042
24.053
24.073
24.099
24.128
24.159
24.188
24.212
24.229
24.235
24.229
24.207
24.166
24.104
24.017
23.902
23.756
23.575
23.356
23.096
22.792
22.441
22.04
21.589
21.085
20.528
19.917
19.252
18.534
17.762
16.939
16.063
15.138
14.165
13.146
12.083
10.979
9.837
8.659
7.449
6.21
4.945
3.658
2.352
1.031
-0.3
-1.638
-2.977
-4.313
-5.642
-6.958
-8.256
-9.533
-10.783
-12.004
-13.191
-14.342
-15.454
-16.525
-17.554
-18.539
-19.48
-20.376
-21.227
-22.034
-22.798
-23.521
-24.203
-24.849
-25.46
-26.038
-26.587
-27.111
-27.611
-28.093
-28.56
-29.016
-29.466
-29.915
-30.367
-30.829
-31.306
-31.802
-32.324
-32.877
-33.465
-34.093
-34.766
-35.486
-36.258
-37.084
-37.967
-38.908
-39.91
-40.973
-42.098
-43.284
-44.53
-45.835
-47.198
-48.615
-50.085
-51.603
-53.166
-54.77
-56.41
-58.081
-59.775
-61.488
-63.21
-64.934
-66.652
-68.356
-70.036
-71.683
-73.287
-74.839
-76.329
-77.749
-79.089
-80.34
-81.492
-82.538
-83.47
-84.28
-84.962
-85.507
-85.912
-86.171
-86.28
-86.235
-86.033
-85.672
-85.15
-84.467
-83.626
-82.626
-81.472
-80.169
-78.724
-77.145
-75.441
-73.622
-71.699
-69.683
-67.588
-65.427
-63.212
-60.954
-58.668
-56.368
-54.071
-51.793
-49.547
-47.349
-45.214
-43.16
-41.206
-39.368
-37.656
-36.081
-34.655
-33.395
-32.325
-31.46
-30.804
-30.358
-30.124
-30.1
-30.285
-30.663
-31.199
-31.853
-32.587
-33.371
-34.19
-35.021
-35.829
-36.571
-37.202
-37.696
-38.064
-38.308
-38.425
-38.423
-38.324
-38.19
-38.132
-38.252
-38.647
-39.395
-40.557
-42.189
-44.333
-47.04
-50.365
-54.331
-58.927
-64.118
-69.818
-75.937
-82.454
-89.197
-95.837
-101.907
-106.709
-109.718
-110.776
-109.762
-106.436
-100.746
-92.795
-83.274
-73.768
-65.388
-58.259
-52.116
-46.576
-41.226
-35.311
-26.735
-12.168
11.179
43.13
80.643
122.832
169.946
223.854
288.801
357.884
417.128
453.846
452.72
412.689
346.956
266.891
186.903
115.336
49.539
-9.98
-61.701
-104.15
-132.746
-145.916
-145.964
-136.287
-121.006
-104.339
-89.422
-78.063
-71.472
-69.958
-72.635
-78.259
-85.424
-92.353
-97.794
-101.216
-102.341
-101.392
-98.952
-95.545
-91.81
-88.477
-85.945
-84.374
-83.818
-84.138
-85.176
-86.819
-88.888
-91.195
-93.605
-96.011
-98.322
-100.459
-102.332
-103.861
-104.992
-105.694
-105.962
-105.794
-105.198
-104.203
-102.843
-101.154
-99.177
-96.943
-94.488
-91.859
-89.109
-86.297
-83.478
-80.686
-77.952
-75.301
-72.751
-70.314
-67.997
-65.794
-63.704
-61.728
-59.87
-58.137
-56.534
-55.06
-53.712
-52.488
-51.389
-50.414
-49.564
-48.837
-48.23
-47.745
-47.38
-47.136
-47.008
-46.987
-47.066
-47.234
-47.482
-47.8
-48.177
-48.603
-49.067
-49.562
-50.079
-50.605
-51.128
-51.631
-52.101
-52.521
-52.876
-53.147
-53.316
-53.367
-53.291
-53.075
-52.708
-52.175
-51.454
-50.533
-49.407
-48.071
-46.528
-44.78
-42.832
-40.701
-38.423
-36.026
-33.542
-30.989
-28.365
-25.676
-22.933
-20.144
-17.321
-14.458
-11.524
-8.5
-5.373
-2.121
1.271
4.846
8.677
12.811
17.281
22.1
27.239
32.679
38.409
44.39
50.57
56.876
63.181
69.376
75.372
81.051
86.301
90.99
94.948
98.061
100.248
101.438
101.606
100.727
98.758
95.711
91.623
86.543
80.59
73.882
66.522
58.67
50.496
42.166
33.869
25.743
17.881
10.389
3.345
-3.183
-9.101
-14.358
-18.925
-22.754
-25.85
-28.25
-29.984
-31.147
-31.859
-32.213
-32.303
-32.2
-31.93
-31.536
-31.058
-30.512
-29.935
-29.353
-28.789
-28.299
-27.917
-27.64
-27.461
-27.331
-27.177
-26.955
-26.631
-26.173
-25.577
-24.841
-23.958
-22.95
-21.832
-20.615
-19.301
-17.876
-16.326
-14.659
-12.893
-11.059
-9.2
-7.351
-5.537
-3.793
-2.138
-0.588
0.844
2.157
3.357
4.442
5.408
6.247
6.948
7.509
7.929
8.21
8.36
8.383
8.287
8.082
7.78
7.387
6.913
6.361
5.735
5.041
4.283
3.468
2.602
1.692
0.743
-0.235
-1.236
-2.252
-3.276
-4.302
-5.323
-6.334
-7.33
-8.306
-9.259
-10.186
-11.083
-11.948
-12.78
-13.576
-14.335
-15.055
-15.736
-16.379
-16.983
-17.551
-18.081
-18.579
-19.049
-19.495
-19.921
-20.33
-20.724
-21.108
-21.483
-21.853
-22.214
-22.566
-22.909
-23.244
-23.575
-23.902
-24.226
-24.548
-24.869
-25.19
-25.517
-25.847
-26.17
-26.481
-26.769
-27.033
-27.286
-27.532
-27.772
-28.014
-28.26
-28.521
-28.812
-29.127
-29.445
-29.748
-30.01
-30.223
-30.396
-30.528
-30.629
-30.699
-30.717
-30.683
-30.597
-30.43
-30.154
-29.735
-29.119
-28.297
-27.303
-26.152
-24.886
-23.536
-22.112
-20.643
-19.15
-17.636
-16.125
-14.615
-13.106
-11.652
-10.309
-9.133
-8.222
-7.623
-7.343
-7.423
-7.851
-8.576
-9.572
-10.774
-12.123
-13.599
-15.166
-16.809
-18.519
-20.232
-21.886
-23.435
-24.771
-25.812
-26.488
-26.669
-26.311
-25.448
-24.1
-22.347
-20.264
-17.88
-15.262
-12.465
-9.519
-6.495
-3.438
-0.368
2.637
5.497
8.119
10.323
12.009
13.163
13.759
13.838
13.432
12.521
11.133
9.313
7.077
4.465
1.501
-1.833
-5.516
-9.521
-13.81
-18.254
-22.756
-27.258
-31.706
-36.125
-40.427
-44.358
-47.61
-49.783
-50.477
-49.442
-46.453
-41.232
-33.858
-24.72
-14.428
-4.084
5.177
12.564
17.636
20.387
21.562
22.352
24.118
29.157
40.327
60.224
90.725
130.915
177.182
226.492
277.185
331.535
393.616
461.119
525.918
573.201
585.935
556.574
486.005
383.929
266.772
150.985
53.364
-14.274
-47.868
-52.372
-42.444
-31.144
-25.947
-27.587
-28.906
-25.5
-17.816
-8.042
-0.661
2.181
1.641
-0.903
-3.928
-5.999
-6.567
-5.413
-2.367
2.215
7.704
13.596
19.348
24.387
28.406
31.249
32.84
33.318
32.856
31.585
29.688
27.344
24.701
21.9
19.072
16.34
13.811
11.569
9.674
8.163
7.045
6.329
6.003
6.03
6.375
7
7.863
8.934
10.171
11.519
12.922
14.315
15.649
16.895
18.027
19.03
19.896
20.622
21.217
21.699
22.081
22.372
22.58
22.709
22.769
22.773
22.735
22.669
22.587
22.5
22.419
22.353
22.312
22.302
22.328
22.392
22.501
22.66
22.877
23.159
23.512
23.942
24.455
25.057
25.75
26.538
27.42
28.396
29.464
30.622
31.867
33.193
34.595
36.067
37.602
39.19
40.824
42.491
44.181
45.882
47.581
49.265
50.92
52.535
54.094
55.586
56.997
58.317
59.533
60.634
61.611
62.452
63.151
63.698
64.087
64.312
64.37
64.258
63.975
63.522
62.899
62.109
61.158
60.05
58.791
57.39
55.854
54.194
52.421
50.547
48.585
46.548
44.45
42.307
40.132
37.94
35.746
33.563
31.406
29.286
27.217
25.21
23.276
21.426
19.667
18.008
16.455
15.014
13.687
12.479
11.389
10.418
9.566
8.829
8.206
7.692
7.283
6.974
6.757
6.626
6.572
6.586
6.659
6.782
6.944
7.135
7.345
7.564
7.782
7.991
8.181
8.343
8.47
8.554
8.588
8.568
8.488
8.345
8.135
7.858
7.514
7.102
6.624
6.082
5.48
4.819
4.105
3.341
2.532
1.684
0.801
-0.109
-1.042
-1.99
-2.947
-3.906
-4.861
-5.805
-6.732
-7.637
-8.514
-9.356
-10.16
-10.918
-11.628
-12.284
-12.882
-13.42
-13.893
-14.301
-14.641
-14.914
-15.119
-15.256
-15.327
-15.333
-15.274
-15.154
-14.974
-14.735
-14.441
-14.093
-13.695
-13.249
-12.758
-12.224
-11.651
-11.039
-10.393
-9.714
-9.004
-8.265
-7.499
-6.71
-5.898
-5.069
-4.223
-3.365
-2.497
-1.622
-0.744
0.135
1.011
1.883
2.746
3.598
4.437
5.259
6.062
6.843
7.598
8.325
9.021
9.683
10.308
10.892
11.433
11.928
12.373
12.764
13.099
13.372
13.582
13.724
13.795
13.794
13.718
13.565
13.335
13.028
12.642
12.18
11.642
11.031
10.348
9.596
8.779
7.901
6.966
5.979
4.946
3.87
2.758
1.614
0.446
-0.743
-1.944
-3.153
-4.363
-5.568
-6.76
-7.933
-9.081
-10.196
-11.273
-12.305
-13.285
-14.208
-15.069
-15.865
-16.592
-17.248
-17.831
-18.34
-18.778
-19.144
-19.444
-19.681
-19.861
-19.991
-20.08
-20.134
-20.163
-20.177
-20.185
-20.197
-20.223
-20.274
-20.359
-20.489
-20.676
-20.932
-21.27
-21.7
-22.232
-22.879
-23.651
-24.564
-25.625
-26.84
-28.213
-29.749
-31.457
-33.346
-35.419
-37.669
-40.087
-42.663
-45.387
-48.249
-51.228
-54.289
-57.4
-60.528
-63.657
-66.781
-69.885
-72.95
-75.945
-78.831
-81.597
-84.245
-86.779
-89.192
-91.475
-93.621
-95.661
-97.664
-99.691
-101.774
-103.914
-106.08
-108.247
-110.416
-112.607
-114.835
-117.105
-119.398
-121.674
-123.972
-126.373
-128.834
-131.172
-132.998
-133.744
-132.973
-130.405
-125.719
-118.719
-109.541
-98.569
-86.816
-75.826
-66.906
-61.21
-59.675
-62.377
-68.672
-77.373
-85.991
-91.323
-90.388
-79.874
-57.07
-21.049
28.002
88.473
156.506
227.395
296.095
356.211
401.838
428.74
433.59
415.389
376.017
318.442
246.863
167.593
87.122
11.521
-53.151
-103.113
-137.093
-154.871
-157.742
-148.757
-131.424
-109.762
-88.361
-70.294
-57.096
-49.602
-47.531
-49.843
-55.362
-62.431
-69.006
-73.848
-76.434
-76.615
-74.841
-71.689
-67.629
-63.312
-59.447
-56.416
-54.386
-53.378
-53.21
-53.719
-54.799
-56.291
-58.048
-59.981
-62.013
-64.073
-66.089
-67.975
-69.66
-71.104
-72.284
-73.186
-73.801
-74.132
-74.206
-74.061
-73.732
-73.248
-72.625
-71.885
-71.062
-70.2
-69.351
-68.557
-67.841
-67.223
-66.714
-66.321
-66.047
-65.883
-65.807
-65.801
-65.85
-65.942
-66.068
-66.215
-66.365
-66.498
-66.596
-66.643
-66.621
-66.517
-66.313
-65.997
-65.554
-64.976
-64.255
-63.382
-62.345
-61.134
-59.738
-58.148
-56.357
-54.354
-52.133
-49.688
-47.012
-44.106
-40.973
-37.615
-34.035
-30.236
-26.22
-22.001
-17.596
-13.001
-8.219
-3.255
1.889
7.182
12.579
18.082
23.69
29.332
34.947
40.482
45.868
51.116
56.278
61.286
66.038
70.708
75.504
80.262
84.968
89.644
93.759
98.658
105.647
112.809
119.548
122.359
117.049
108.228
98.964
93.837
99.14
109.293
119.567
126.721
125.407
119.453
112.74
106.139
102.022
99.028
95.407
91.509
87.126
82.396
77.696
72.814
67.587
62.101
56.397
50.478
44.38
38.143
31.805
25.43
19.087
12.792
6.558
0.421
-5.589
-11.443
-17.11
-22.566
-27.791
-32.758
-37.439
-41.813
-45.86
-49.561
-52.901
-55.863
-58.438
-60.613
-62.382
-63.738
-64.678
-65.201
-65.309
-65.004
-64.292
-63.18
-61.677
-59.794
-57.545
-54.943
-52.004
-48.746
-45.187
-41.346
-37.244
-32.903
-28.343
-23.589
-18.664
-13.59
-8.393
-3.097
2.274
7.698
13.149
18.606
24.046
29.448
34.792
40.059
45.23
50.29
55.222
60.012
64.649
69.119
73.415
77.527
81.449
85.175
88.699
92.02
95.135
98.043
100.743
103.237
105.526
107.613
109.502
111.197
112.704
114.029
115.178
116.16
116.982
117.652
118.179
118.572
118.839
118.989
119.031
118.974
118.826
118.595
118.29
117.917
117.483
116.994
116.455
115.871
115.245
114.582
113.884
113.153
112.394
111.607
110.796
109.961
109.104
108.227
107.331
106.416
105.484
104.534
103.567
102.582
101.58
100.559
99.52
98.461
97.381
96.28
95.155
94.006
92.832
91.631
90.403
89.15
87.871
86.568
85.243
83.902
82.548
81.187
79.824
78.464
77.113
75.777
74.461
73.169
71.903
70.667
69.464
68.3
67.179
66.106
65.088
64.132
63.245
62.437
61.717
61.094
60.573
60.164
59.875
59.718
59.707
59.853
60.156
60.617
61.23
61.984
62.86
63.832
64.86
65.913
66.955
67.96
68.913
69.792
70.583
71.275
71.854
72.318
72.686
72.978
73.228
73.487
73.809
74.263
74.944
75.92
77.253
78.989
81.143
83.726
86.725
90.103
93.82
97.819
102.006
106.285
110.543
114.629
118.413
121.752
124.467
126.424
127.493
127.563
126.574
124.487
121.299
117.051
111.793
105.585
98.527
90.721
82.29
73.397
64.154
54.674
45.1
35.541
26.12
16.969
8.171
-0.208
-8.132
-15.615
-22.673
-29.32
-35.599
-41.516
-47.14
-52.591
-57.824
-62.705
-67.002
-70.326
-72.409
-73.084
-72.056
-69.114
-64.32
-57.925
-50.692
-43.736
-37.942
-34.249
-33.512
-35.916
-41.2
-48.446
-55.66
-60.733
-61.344
-54.279
-36.841
-7.546
32.732
80.035
129.735
179.256
230.423
286.021
345.759
403.813
443.683
448.374
406.507
313.144
183.225
39.814
-91.732
-182.927
-225.023
-222.615
-189.765
-152.196
-124.321
-110.481
-108.804
-109.077
-106.653
-102.429
-98.382
-98.545
-103.782
-111.978
-121.227
-129.461
-135.701
-140.094
-142.666
-143.637
-143.468
-142.62
-141.688
-141.249
-141.536
-142.577
-144.342
-146.698
-149.537
-152.765
-156.205
-159.68
-163.05
-166.211
-169.125
-171.789
-174.175
-176.244
-177.967
-179.329
-180.348
-181.055
-181.468
-181.603
-181.477
-181.115
-180.56
-179.857
-179.055
-178.202
-177.336
-176.482
-175.666
-174.908
-174.221
-173.614
-173.085
-172.621
-172.217
-171.868
-171.567
-171.311
-171.089
-170.888
-170.694
-170.493
-170.27
-170.011
-169.703
-169.332
-168.887
-168.357
-167.731
-167.004
-166.166
-165.207
-164.116
-162.884
-161.5
-159.955
-158.24
-156.348
-154.272
-152.008
-149.551
-146.902
-144.06
-141.026
-137.803
-134.395
-130.808
-127.048
-123.122
-119.041
-114.814
-110.454
-105.973
-101.385
-96.707
-91.953
-87.141
-82.289
-77.412
-72.531
-67.662
-62.825
-58.036
-53.315
-48.679
-44.146
-39.734
-35.46
-31.341
-27.391
-23.626
-20.06
-16.703
-13.566
-10.66
-7.99
-5.565
-3.388
-1.463
0.208
1.624
2.785
3.695
4.355
4.772
4.952
4.902
4.63
4.148
3.464
2.591
1.541
0.327
-1.039
-2.543
-4.171
-5.907
-7.738
-9.649
-11.623
-13.648
-15.707
-17.788
-19.876
-21.958
-24.022
-26.057
-28.052
-29.998
-31.884
-33.704
-35.45
-37.115
-38.693
-40.182
-41.576
-42.874
-44.073
-45.174
-46.175
-47.079
-47.886
-48.598
-49.219
-49.749
-50.194
-50.557
-50.841
-51.052
-51.194
-51.271
-51.29
-51.254
-51.168
-51.036
-50.864
-50.654
-50.409
-50.134
-49.829
-49.499
-49.144
-48.765
-48.365
-47.944
-47.501
-47.037
-46.552
-46.045
-45.513
-44.957
-44.374
-43.763
-43.123
-42.451
-41.747
-41.009
-40.235
-39.424
-38.577
-37.69
-36.765
-35.801
-34.798
-33.758
-32.681
-31.569
-30.425
-29.252
-28.053
-26.832
-25.594
-24.343
-23.085
-21.825
-20.567
-19.319
-18.087
-16.876
-15.694
-14.546
-13.439
-12.378
-11.371
-10.422
-9.537
-8.719
-7.974
-7.305
-6.714
-6.205
-5.779
-5.438
-5.182
-5.011
-4.924
-4.918
-4.992
-5.141
-5.361
-5.646
-5.991
-6.388
-6.833
-7.315
-7.829
-8.366
-8.917
-9.474
-10.028
-10.57
-11.09
-11.581
-12.032
-12.437
-12.787
-13.075
-13.295
-13.442
-13.509
-13.493
-13.39
-13.197
-12.911
-12.532
-12.06
-11.494
-10.836
-10.09
-9.258
-8.345
-7.357
-6.299
-5.179
-4.002
-2.777
-1.511
-0.213
1.11
2.447
3.792
5.134
6.463
7.772
9.051
10.292
11.488
12.631
13.714
14.734
15.684
16.562
17.365
18.091
18.738
19.305
19.793
20.204
20.539
20.803
20.999
21.133
21.211
21.239
21.224
21.174
21.097
20.999
20.89
20.778
20.671
20.576
20.502
20.458
20.451
20.489
20.58
20.729
20.942
21.223
21.577
22.005
22.506
23.077
23.718
24.425
25.193
26.018
26.895
27.816
28.778
29.777
30.805
31.854
32.914
33.975
35.025
36.053
37.047
37.996
38.888
39.717
40.481
41.172
41.783
42.301
42.706
42.985
43.129
43.128
42.978
42.681
42.251
41.714
41.108
40.467
39.813
39.164
38.53
37.933
37.403
36.969
36.66
36.493
36.484
36.656
37.025
37.566
38.217
38.887
39.468
39.889
40.115
40.103
39.795
39.11
37.948
36.239
33.973
31.126
27.619
23.46
18.765
13.849
9.284
5.635
3.301
2.568
3.616
6.333
10.43
15.271
19.732
22.741
23.454
21.523
17.296
11.775
6.36
3.013
4.222
12.516
30.479
59.614
99.923
150.398
208.867
271.979
335.708
395.302
445.095
480.657
499.077
498.219
477.901
439.74
386.261
321.609
251.611
181.375
115.482
58.588
13.411
-18.954
-38.188
-45.706
-44.382
-36.812
-25.911
-15.117
-6.523
-1.271
-0.078
-2.503
-7.504
-14.237
-21.474
-27.694
-32.155
-34.524
-34.717
-33.217
-30.559
-27.144
-23.549
-20.362
-17.874
-16.247
-15.513
-15.52
-16.158
-17.337
-18.908
-20.74
-22.718
-24.739
-26.721
-28.58
-30.226
-31.593
-32.63
-33.31
-33.629
-33.586
-33.192
-32.476
-31.474
-30.225
-28.773
-27.145
-25.382
-23.532
-21.648
-19.793
-18.018
-16.356
-14.833
-13.471
-12.278
-11.264
-10.426
-9.75
-9.223
-8.837
-8.582
-8.454
-8.444
-8.535
-8.713
-8.959
-9.259
-9.6
-9.968
-10.348
-10.727
-11.095
-11.441
-11.758
-12.036
-12.262
-12.424
-12.51
-12.506
-12.401
-12.185
-11.844
-11.37
-10.755
-9.99
-9.071
-7.995
-6.755
-5.352
-3.782
-2.048
-0.151
1.906
4.118
6.481
8.986
11.626
14.391
17.272
20.258
23.339
26.502
29.736
33.029
36.367
39.738
43.127
46.52
49.903
53.259
56.576
59.837
63.028
66.134
69.141
72.034
74.802
77.432
79.911
82.228
84.374
86.337
88.11
89.686
91.058
92.22
93.169
93.902
94.417
94.714
94.791
94.65
94.294
93.723
92.943
91.957
90.771
89.391
87.825
86.08
84.167
82.094
79.872
77.513
75.028
72.43
69.732
66.945
64.085
61.165
58.198
55.199
52.182
49.161
46.149
43.16
40.206
37.299
34.45
31.671
28.97
26.359
23.844
21.434
19.137
16.958
14.902
12.974
11.176
9.512
7.98
6.583
5.317
4.182
3.175
2.291
1.527
0.876
0.332
-0.111
-0.461
-0.727
-0.917
-1.041
-1.109
-1.129
-1.113
-1.069
-1.008
-0.94
-0.874
-0.82
-0.786
-0.781
-0.814
-0.892
-1.022
-1.212
-1.466
-1.789
-2.185
-2.658
-3.208
-3.839
-4.549
-5.339
-6.208
-7.154
-8.175
-9.266
-10.425
-11.646
-12.925
-14.255
-15.632
-17.048
-18.498
-19.975
-21.471
-22.98
-24.496
-26.012
-27.52
-29.013
-30.487
-31.933
-33.347
-34.722
-36.053
-37.337
-38.568
-39.744
-40.861
-41.919
-42.916
-43.85
-44.723
-45.534
-46.285
-46.978
-47.615
-48.2
-48.735
-49.224
-49.672
-50.084
-50.463
-50.814
-51.143
-51.453
-51.75
-52.038
-52.322
-52.606
-52.895
-53.194
-53.506
-53.835
-54.186
-54.562
-54.966
-55.399
-55.866
-56.366
-56.901
-57.473
-58.08
-58.723
-59.4
-60.112
-60.855
-61.627
-62.426
-63.248
-64.089
-64.946
-65.814
-66.689
-67.565
-68.439
-69.307
-70.162
-71.002
-71.821
-72.613
-73.376
-74.104
-74.793
-75.437
-76.033
-76.575
-77.061
-77.486
-77.845
-78.136
-78.353
-78.494
-78.557
-78.538
-78.434
-78.243
-77.963
-77.592
-77.13
-76.576
-75.929
-75.187
-74.353
-73.425
-72.404
-71.291
-70.087
-68.79
-67.404
-65.929
-64.369
-62.724
-60.998
-59.193
-57.313
-55.363
-53.346
-51.267
-49.133
-46.947
-44.72
-42.459
-40.172
-37.869
-35.558
-33.249
-30.951
-28.673
-26.423
-24.206
-22.031
-19.906
-17.842
-15.847
-13.93
-12.101
-10.37
-8.75
-7.25
-5.879
-4.636
-3.526
-2.556
-1.734
-1.076
-0.589
-0.272
-0.127
-0.152
-0.343
-0.691
-1.17
-1.738
-2.363
-3.017
-3.685
-4.359
-5.017
-5.63
-6.163
-6.586
-6.889
-7.072
-7.125
-7.036
-6.811
-6.49
-6.165
-5.937
-5.883
-6.041
-6.424
-7.067
-8.035
-9.396
-11.218
-13.534
-16.312
-19.578
-23.408
-27.762
-32.485
-37.261
-41.565
-44.996
-47.296
-48.093
-47.092
-44.255
-39.721
-34.075
-28.219
-22.74
-18.216
-15.355
-14.412
-15.114
-16.666
-17.432
-15.679
-9.877
2.265
23.206
54.666
95.782
142.803
192.117
241.876
295.582
358.405
428.026
495.539
544.127
555.092
522.405
448.926
343.927
224.135
102.449
-7.9
-89.928
-135.879
-145.132
-126.223
-98.539
-75.653
-63.117
-59.779
-57.752
-53.187
-46.85
-41.004
-39.189
-41.91
-47.314
-53.582
-58.696
-61.762
-62.852
-62.008
-59.588
-56.136
-52.144
-48.222
-44.98
-42.693
-41.428
-41.156
-41.703
-42.915
-44.671
-46.795
-49.102
-51.44
-53.677
-55.696
-57.428
-58.81
-59.787
-60.326
-60.41
-60.039
-59.234
-58.028
-56.463
-54.575
-52.403
-49.982
-47.355
-44.572
-41.695
-38.784
-35.89
-33.048
-30.286
-27.625
-25.083
-22.669
-20.381
-18.209
-16.144
-14.181
-12.318
-10.554
-8.885
-7.302
-5.795
-4.354
-2.971
-1.64
-0.353
0.899
2.12
3.318
4.495
5.653
6.797
7.932
9.065
10.202
11.35
12.513
13.697
14.907
16.146
17.419
18.727
20.07
21.45
22.868
24.322
25.813
27.34
28.9
30.492
32.113
33.759
35.429
37.117
38.82
40.532
42.25
43.968
45.682
47.386
49.074
50.741
52.383
53.993
55.566
57.097
58.581
60.014
61.392
62.71
63.966
65.156
66.277
67.328
68.307
69.211
70.04
70.791
71.465
72.059
72.574
73.008
73.361
73.632
73.821
73.928
73.953
73.894
73.753
73.527
73.218
72.825
72.348
71.787
71.143
70.417
69.609
68.719
67.748
66.698
65.568
64.36
63.076
61.715
60.28
58.773
57.197
55.553
53.845
52.077
50.253
48.377
46.453
44.487
42.483
40.449
38.389
36.311
34.222
32.128
30.036
27.956
25.892
23.854
21.848
19.88
17.958
16.087
14.273
12.523
10.84
9.231
7.699
6.249
4.884
3.607
2.419
1.322
0.317
-0.597
-1.42
-2.155
-2.804
-3.37
-3.857
-4.27
-4.614
-4.896
-5.121
-5.298
-5.434
-5.538
-5.618
-5.683
-5.741
-5.802
-5.874
-5.965
-6.083
-6.235
-6.427
-6.668
-6.962
-7.315
-7.732
-8.218
-8.775
-9.407
-10.116
-10.902
-11.766
-12.709
-13.727
-14.821
-15.986
-17.221
-18.52
-19.879
-21.294
-22.757
-24.263
-25.804
-27.372
-28.96
-30.559
-32.16
-33.756
-35.339
-36.899
-38.431
-39.927
-41.38
-42.784
-44.134
-45.425
-46.651
-47.809
-48.897
-49.911
-50.849
-51.711
-52.496
-53.205
-53.839
-54.4
-54.889
-55.31
-55.665
-55.958
-56.193
-56.375
-56.508
-56.598
-56.651
-56.672
-56.668
-56.646
-56.613
-56.573
-56.533
-56.5
-56.477
-56.471
-56.485
-56.523
-56.59
-56.687
-56.818
-56.986
-57.191
-57.433
-57.715
-58.033
-58.388
-58.776
-59.195
-59.64
-60.109
-60.596
-61.097
-61.608
-62.122
-62.635
-63.139
-63.63
-64.101
-64.543
-64.95
-65.315
-65.63
-65.889
-66.085
-66.212
-66.264
-66.235
-66.121
-65.918
-65.622
-65.228
-64.734
-64.135
-63.432
-62.621
-61.704
-60.682
-59.557
-58.334
-57.021
-55.625
-54.155
-52.616
-51.02
-49.373
-47.686
-45.967
-44.221
-42.457
-40.687
-38.922
-37.174
-35.453
-33.769
-32.129
-30.546
-29.026
-27.579
-26.213
-24.934
-23.754
-22.69
-21.757
-20.979
-20.37
-19.936
-19.68
-19.608
-19.717
-20.002
-20.449
-21.03
-21.723
-22.507
-23.353
-24.235
-25.11
-25.926
-26.644
-27.222
-27.629
-27.863
-27.921
-27.802
-27.525
-27.1
-26.563
-25.997
-25.472
-25.082
-24.943
-25.136
-25.821
-27.193
-29.284
-32.032
-35.249
-38.566
-41.751
-44.679
-47.036
-48.574
-49.356
-49.647
-50.195
-51.956
-55.247
-60.102
-66.63
-74.635
-83.654
-92.725
-99.816
-102.768
-100.468
-92.102
-76.875
-54.272
-23.585
15.155
60.221
109.647
162.143
216.053
269.215
318.989
361.559
393.399
412.657
417.756
407.143
380.594
339.122
285.098
222.965
157.732
93.571
34.756
-14.74
-52.516
-77.384
-89.528
-91.079
-84.933
-73.878
-61.081
-49.335
-40.308
-35.02
-33.676
-35.453
-39.238
-43.841
-47.843
-50.267
-50.733
-49.122
-45.714
-41.069
-35.712
-30.236
-25.27
-21.171
-18.089
-16.07
-15.001
-14.752
-15.218
-16.241
-17.651
-19.306
-21.084
-22.876
-24.578
-26.088
-27.315
-28.197
-28.695
-28.799
-28.506
-27.821
-26.77
-25.384
-23.698
-21.751
-19.575
-17.209
-14.703
-12.113
-9.501
-6.918
-4.401
-1.977
0.335
2.524
4.584
6.518
8.338
10.055
11.675
13.204
14.644
16.001
17.286
18.511
19.688
20.829
21.941
23.033
24.113
25.189
26.266
27.348
28.434
29.53
30.641
31.773
32.932
34.124
35.354
36.629
37.953
39.333
40.77
42.269
43.829
45.453
47.142
48.896
50.715
52.596
54.539
56.54
58.597
60.706
62.861
65.056
67.286
69.544
71.821
74.111
76.406
78.698
80.977
83.237
85.468
87.664
89.814
91.912
93.949
95.916
97.806
99.611
101.323
102.934
104.437
105.825
107.091
108.228
109.232
110.094
110.811
111.376
111.784
112.031
112.114
112.028
111.772
111.343
110.741
109.966
109.018
107.898
106.607
105.148
103.524
101.738
99.793
97.694
95.444
93.05
90.516
87.848
85.053
82.138
79.109
75.975
72.744
69.424
66.025
62.556
59.028
55.451
51.837
48.197
44.543
40.886
37.237
33.61
30.014
26.461
22.96
19.522
16.155
12.869
9.671
6.57
3.571
0.682
-2.093
-4.747
-7.276
-9.678
-11.948
-14.084
-16.085
-17.949
-19.676
-21.267
-22.721
-24.041
-25.229
-26.29
-27.227
-28.045
-28.751
-29.35
-29.851
-30.261
-30.588
-30.839
-31.024
-31.151
-31.227
-31.261
-31.262
-31.236
-31.192
-31.136
-31.076
-31.018
-30.967
-30.93
-30.911
-30.915
-30.947
-31.009
-31.107
-31.242
-31.417
-31.635
-31.897
-32.204
-32.556
-32.953
-33.394
-33.877
-34.401
-34.961
-35.555
-36.179
-36.829
-37.501
-38.189
-38.889
-39.596
-40.304
-41.008
-41.702
-42.381
-43.04
-43.674
-44.278
-44.848
-45.38
-45.87
-46.313
-46.706
-47.045
-47.328
-47.55
-47.709
-47.802
-47.827
-47.782
-47.666
-47.479
-47.219
-46.886
-46.482
-46.008
-45.464
-44.852
-44.174
-43.433
-42.632
-41.776
-40.868
-39.913
-38.916
-37.881
-36.814
-35.719
-34.602
-33.467
-32.317
-31.159
-29.998
-28.838
-27.684
-26.541
-25.414
-24.31
-23.232
-22.185
-21.173
-20.199
-19.269
-18.384
-17.548
-16.764
-16.035
-15.362
-14.748
-14.196
-13.707
-13.281
-12.919
-12.619
-12.382
-12.206
-12.09
-12.032
-12.031
-12.086
-12.2
-12.373
-12.608
-12.904
-13.263
-13.684
-14.169
-14.716
-15.319
-15.976
-16.681
-17.434
-18.233
-19.08
-19.972
-20.909
-21.891
-22.917
-23.983
-25.084
-26.208
-27.349
-28.504
-29.672
-30.861
-32.08
-33.332
-34.619
-35.943
-37.29
-38.647
-39.99
-41.279
-42.484
-43.585
-44.558
-45.395
-46.077
-46.574
-46.872
-46.949
-46.775
-46.338
-45.615
-44.596
-43.331
-41.875
-40.296
-38.678
-37.059
-35.482
-34.034
-32.778
-31.818
-31.258
-31.114
-31.468
-32.458
-34.079
-36.266
-38.797
-41.101
-42.68
-43.184
-42.136
-39.3
-34.865
-29.077
-22.756
-17.305
-13.825
-13.37
-16.907
-24.351
-34.687
-46.585
-57.72
-64.81
-64.733
-54.284
-30.372
6.867
54.197
110.34
173.728
243.719
323.222
405.237
475.761
522.463
530.551
498.485
439.053
363.754
286.031
213.565
144.416
79.224
20.044
-30.617
-68.203
-91.066
-100.632
-99.775
-92.306
-81.862
-71.858
-64.673
-61.548
-63.078
-68.873
-77.797
-88.579
-99.629
-109.151
-116.128
-120.168
-121.149
-119.43
-115.526
-109.946
-103.429
-96.796
-90.51
-84.781
-79.688
-75.136
-71.086
-67.551
-64.451
-61.686
-59.183
-56.885
-54.778
-52.884
-51.159
-49.516
-47.851
-46.042
-44.022
-41.771
-39.269
-36.511
-33.503
-30.256
-26.809
-23.214
-19.52
-15.768
-11.997
-8.24
-4.546
-0.973
2.416
5.555
8.396
10.909
13.071
14.867
16.29
17.339
18.024
18.366
18.38
18.082
17.484
16.6
15.448
14.048
12.425
10.604
8.61
6.468
4.202
1.841
-0.59
-3.063
-5.554
-8.039
-10.496
-12.9
-15.223
-17.443
-19.536
-21.48
-23.254
-24.834
-26.197
-27.321
-28.188
-28.779
-29.079
-29.074
-28.75
-28.1
-27.124
-25.823
-24.198
-22.248
-19.967
-17.36
-14.438
-11.216
-7.713
-3.952
0.041
4.223
8.538
12.931
17.35
21.755
26.129
30.447
34.682
38.809
42.803
46.651
50.363
53.939
57.365
60.642
63.779
66.815
69.832
72.898
76.07
79.38
82.832
86.426
90.156
93.988
97.868
101.714
105.416
108.89
112.078
114.9
117.267
119.044
120.048
120.109
119.077
116.819
113.231
108.237
101.796
93.931
84.719
74.283
62.771
50.311
37.025
23.063
8.591
-6.179
-20.99
-35.586
-49.69
-63.02
-75.309
-86.326
-95.905
-103.955
-110.438
-115.364
-118.76
-120.648
-121.069
-120.101
-117.819
-114.332
-109.776
-104.3
-98.128
-91.519
-84.72
-77.949
-71.364
-65.06
-59.116
-53.584
-48.499
-43.899
-39.79
-36.158
-33.019
-30.38
-28.24
-26.594
-25.346
-24.354
-23.502
-22.69
-21.861
-20.996
-20.069
-19.056
-17.962
-16.796
-15.582
-14.357
-13.116
-11.846
-10.534
-9.168
-7.788
-6.476
-5.286
-4.259
-3.423
-2.783
-2.355
-2.161
-2.192
-2.427
-2.845
-3.417
-4.139
-5.018
-6.056
-7.254
-8.596
-10.045
-11.575
-13.166
-14.796
-16.449
-18.105
-19.738
-21.338
-22.903
-24.43
-25.917
-27.353
-28.723
-30.016
-31.222
-32.333
-33.344
-34.251
-35.047
-35.729
-36.298
-36.751
-37.091
-37.318
-37.428
-37.42
-37.296
-37.056
-36.705
-36.245
-35.679
-35.011
-34.248
-33.394
-32.457
-31.442
-30.354
-29.201
-27.989
-26.725
-25.417
-24.07
-22.692
-21.29
-19.871
-18.443
-17.011
-15.583
-14.166
-12.766
-11.391
-10.048
-8.741
-7.478
-6.263
-5.102
-3.999
-2.959
-1.986
-1.082
-0.252
0.502
1.176
1.769
2.276
2.697
3.028
3.266
3.409
3.454
3.4
3.246
2.99
2.633
2.177
1.623
0.974
0.229
-0.608
-1.538
-2.557
-3.663
-4.857
-6.138
-7.505
-8.952
-10.469
-12.047
-13.681
-15.372
-17.122
-18.931
-20.788
-22.688
-24.623
-26.584
-28.553
-30.499
-32.372
-34.127
-35.727
-37.148
-38.381
-39.411
-40.208
-40.74
-40.972
-40.89
-40.502
-39.806
-38.787
-37.456
-35.844
-34.033
-32.167
-30.358
-28.69
-27.217
-25.944
-24.906
-24.187
-23.863
-24.009
-24.672
-25.792
-27.359
-29.472
-32.067
-34.95
-37.766
-39.819
-40.509
-39.638
-37.059
-32.648
-26.616
-19.218
-10.927
-2.994
3.356
7.695
9.988
10.665
10.95
12.124
15.406
23.088
38.098
62.104
95.84
139.482
189.776
243.074
298.688
352.756
403.119
449.286
482.622
498.862
496.139
469.835
425.58
365.332
287.752
200.454
110.29
31.677
-17.255
-32.275
-18.904
7.323
27.633
34.141
28.213
16.59
5.904
-2.407
-10.354
-20.32
-32.541
-45.413
-56.975
-65.854
-71.861
-75.251
-76.191
-75.001
-72.16
-68.294
-64.169
-60.287
-56.816
-53.842
-51.376
-49.434
-48.074
-47.27
-46.922
-46.962
-47.337
-48.008
-48.982
-50.244
-51.728
-53.352
-54.994
-56.527
-57.881
-59.008
-59.871
-60.447
-60.712
-60.655
-60.305
-59.701
-58.881
-57.876
-56.71
-55.4
-53.981
-52.498
-50.999
-49.538
-48.146
-46.842
-45.641
-44.551
-43.575
-42.713
-41.95
-41.261
-40.631
-40.043
-39.487
-38.952
-38.424
-37.885
-37.32
-36.712
-36.047
-35.314
-34.5
-33.595
-32.588
-31.473
-30.244
-28.897
-27.428
-25.833
-24.106
-22.244
-20.242
-18.1
-15.815
-13.387
-10.818
-8.109
-5.265
-2.291
0.805
4.016
7.333
10.746
14.243
17.812
21.44
25.113
28.817
32.537
36.257
39.963
43.64
47.272
50.843
54.338
57.743
61.043
64.223
67.27
70.17
72.91
75.478
77.862
80.052
82.038
83.811
85.361
86.683
87.769
88.615
89.215
89.568
89.67
89.522
89.124
88.478
87.586
86.453
85.084
83.485
81.663
79.626
77.382
74.941
72.312
69.507
66.536
63.41
60.142
56.744
53.228
49.605
45.89
42.095
38.231
34.312
30.351
26.359
22.349
18.334
14.327
10.338
6.381
2.466
-1.395
-5.192
-8.914
-12.554
-16.101
-19.548
-22.889
-26.115
-29.223
-32.207
-35.061
-37.784
-40.371
-42.821
-45.13
-47.299
-49.327
-51.211
-52.954
-54.553
-56.01
-57.326
-58.5
-59.535
-60.431
-61.19
-61.815
-62.31
-62.676
-62.918
-63.04
-63.046
-62.941
-62.729
-62.415
-62.005
-61.502
-60.913
-60.242
-59.494
-58.674
-57.786
-56.837
-55.829
-54.768
-53.659
-52.504
-51.309
-50.079
-48.818
-47.531
-46.225
-44.905
-43.576
-42.246
-40.92
-39.605
-38.307
-37.033
-35.787
-34.576
-33.405
-32.28
-31.205
-30.186
-29.228
-28.334
-27.51
-26.759
-26.084
-25.489
-24.976
-24.549
-24.211
-23.963
-23.808
-23.748
-23.785
-23.919
-24.153
-24.485
-24.916
-25.442
-26.062
-26.773
-27.568
-28.445
-29.397
-30.417
-31.5
-32.638
-33.823
-35.048
-36.305
-37.583
-38.874
-40.169
-41.457
-42.729
-43.974
-45.184
-46.348
-47.458
-48.504
-49.477
-50.369
-51.17
-51.871
-52.464
-52.941
-53.294
-53.516
-53.6
-53.543
-53.339
-52.988
-52.488
-51.84
-51.044
-50.102
-49.019
-47.799
-46.446
-44.967
-43.368
-41.659
-39.847
-37.945
-35.965
-33.922
-31.829
-29.701
-27.556
-25.407
-23.271
-21.161
-19.09
-17.069
-15.11
-13.225
-11.426
-9.728
-8.143
-6.685
-5.367
-4.196
-3.181
-2.328
-1.639
-1.112
-0.747
-0.541
-0.497
-0.627
-0.941
-1.442
-2.131
-2.995
-4.018
-5.184
-6.464
-7.822
-9.218
-10.609
-11.956
-13.233
-14.418
-15.495
-16.436
-17.189
-17.707
-17.965
-17.955
-17.702
-17.222
-16.529
-15.652
-14.637
-13.561
-12.524
-11.612
-10.904
-10.455
-10.274
-10.445
-11.114
-12.288
-13.885
-15.653
-17.098
-17.872
-17.731
-16.278
-13.242
-8.641
-2.605
4.123
10.326
15.096
17.471
16.594
12.551
6.008
-2.077
-9.593
-13.796
-12.056
-1.005
22.461
57.96
102.674
154.233
208.548
266.12
332.872
407.04
484.265
553.598
591.696
584.71
526.282
418.564
284.527
149.375
37.27
-32.248
-59.09
-54.424
-36.495
-22.509
-18.335
-21.875
-25.397
-23.52
-16.973
-8.869
-3.626
-3.3
-6.716
-12.186
-18.027
-22.794
-25.908
-27.17
-26.413
-23.957
-20.403
-16.248
-12.055
-8.425
-5.665
-3.932
-3.319
-3.708
-4.957
-6.966
-9.561
-12.567
-15.847
-19.266
-22.711
-26.081
-29.266
-32.182
-34.763
-36.967
-38.782
-40.199
-41.216
-41.854
-42.137
-42.093
-41.757
-41.16
-40.335
-39.332
-38.203
-37.01
-35.803
-34.614
-33.469
-32.386
-31.372
-30.433
-29.565
-28.755
-27.992
-27.271
-26.585
-25.934
-25.312
-24.708
-24.109
-23.502
-22.876
-22.222
-21.531
-20.794
-20.003
-19.153
-18.241
-17.266
-16.224
-15.109
-13.915
-12.637
-11.267
-9.802
-8.236
-6.565
-4.785
-2.894
-0.892
1.22
3.442
5.772
8.208
10.748
13.387
16.121
18.945
21.854
24.839
27.892
31.004
34.164
37.361
40.583
43.817
47.05
50.27
53.461
56.61
59.703
62.725
65.661
68.498
71.22
73.813
76.265
78.562
80.692
82.643
84.407
85.973
87.334
88.482
89.41
90.114
90.588
90.829
90.835
90.603
90.135
89.43
88.492
87.323
85.93
84.317
82.492
80.464
78.241
75.835
73.256
70.516
67.629
64.608
61.468
58.223
54.888
51.479
48.011
44.499
40.959
37.404
33.849
30.308
26.795
23.322
19.902
16.548
13.27
10.079
6.986
4
1.129
-1.619
-4.237
-6.72
-9.062
-11.261
-13.313
-15.216
-16.971
-18.578
-20.038
-21.353
-22.528
-23.567
-24.475
-25.257
-25.921
-26.472
-26.919
-27.269
-27.53
-27.71
-27.817
-27.859
-27.843
-27.779
-27.673
-27.534
-27.369
-27.186
-26.991
-26.793
-26.598
-26.413
-26.244
-26.097
-25.978
-25.892
-25.844
-25.836
-25.873
-25.957
-26.091
-26.276
-26.513
-26.803
-27.147
-27.543
-27.992
-28.493
-29.045
-29.646
-30.295
-30.99
-31.731
-32.514
-33.34
-34.207
-35.113
-36.058
-37.04
-38.058
-39.11
-40.195
-41.312
-42.458
-43.632
-44.832
-46.057
-47.305
-48.574
-49.864
-51.172
-52.499
-53.841
-55.197
-56.567
-57.947
-59.338
-60.735
-62.138
-63.544
-64.951
-66.356
-67.756
-69.148
-70.527
-71.889
-73.228
-74.54
-75.82
-77.061
-78.256
-79.401
-80.488
-81.512
-82.468
-83.347
-84.146
-84.856
-85.473
-85.991
-86.403
-86.705
-86.891
-86.957
-86.898
-86.712
-86.397
-85.949
-85.367
-84.651
-83.8
-82.818
-81.704
-80.463
-79.098
-77.617
-76.027
-74.337
-72.556
-70.695
-68.763
-66.775
-64.742
-62.674
-60.582
-58.479
-56.379
-54.295
-52.242
-50.232
-48.279
-46.398
-44.608
-42.926
-41.363
-39.927
-38.628
-37.476
-36.489
-35.683
-35.069
-34.647
-34.421
-34.391
-34.558
-34.919
-35.454
-36.123
-36.889
-37.719
-38.594
-39.498
-40.408
-41.283
-42.076
-42.753
-43.3
-43.72
-44.007
-44.146
-44.135
-44
-43.808
-43.659
-43.646
-43.829
-44.258
-44.972
-45.999
-47.404
-49.257
-51.591
-54.422
-57.73
-61.445
-65.549
-70.066
-74.868
-79.718
-84.216
-87.747
-89.895
-90.553
-89.597
-86.828
-82.192
-75.676
-67.79
-59.876
-52.874
-46.904
-41.728
-36.956
-32.207
-27.098
-20.246
-8.636
10.647
37.75
70.19
105.82
142.85
184.314
237.418
302.02
372.459
435.513
470.177
463.966
414.662
329.943
227.141
124.623
37.274
-26.718
-63.418
-76.168
-74.858
-66.371
-58.159
-53.549
-48.483
-42.012
-34.258
-25.937
-21.022
-21.217
-25.612
-33.018
-41.47
-49.083
-55.085
-59.092
-60.729
-60.096
-57.628
-53.819
-49.354
-44.971
-41.027
-37.667
-34.99
-32.934
-31.438
-30.469
-29.89
-29.542
-29.332
-29.221
-29.199
-29.27
-29.376
-29.409
-29.274
-28.91
-28.293
-27.419
-26.274
-24.845
-23.128
-21.147
-18.941
-16.546
-13.987
-11.278
-8.437
-5.497
-2.505
0.486
3.432
6.304
9.082
11.754
14.306
16.73
19.027
21.207
23.281
25.256
27.133
28.914
30.602
32.204
33.732
35.194
36.599
37.952
39.26
40.53
41.769
42.979
44.164
45.326
46.466
47.59
48.703
49.81
50.916
52.027
53.148
54.284
55.441
56.622
57.829
59.065
60.332
61.631
62.963
64.329
65.729
67.162
68.627
70.124
71.65
73.203
74.779
76.376
77.99
79.616
81.25
82.887
84.522
86.149
87.762
89.356
90.923
92.456
93.947
95.389
96.773
98.092
99.337
100.5
101.573
102.549
103.421
104.181
104.824
105.343
105.732
105.987
106.102
106.072
105.895
105.565
105.082
104.441
103.642
102.685
101.568
100.293
98.861
97.273
95.532
93.643
91.608
89.434
87.126
84.692
82.139
79.476
76.711
73.856
70.92
67.914
64.848
61.735
58.585
55.41
52.222
49.033
45.854
42.697
39.575
36.5
33.481
30.532
27.661
24.881
22.201
19.631
17.179
14.855
12.666
10.62
8.723
6.982
5.4
3.983
2.732
1.65
0.737
-0.006
-0.581
-0.989
-1.232
-1.313
-1.236
-1.005
-0.625
-0.102
0.56
1.352
2.269
3.302
4.444
5.687
7.023
8.442
9.936
11.496
13.113
14.775
16.474
18.198
19.937
21.681
23.419
25.142
26.841
28.507
30.131
31.707
33.227
34.684
36.072
37.384
38.614
39.756
40.805
41.756
42.605
43.348
43.981
44.501
44.906
45.194
45.361
45.406
45.325
45.12
44.788
44.331
43.75
43.047
42.225
41.291
40.25
39.109
37.874
36.55
35.142
33.657
32.1
30.473
28.779
27.022
25.211
23.352
21.457
19.535
17.597
15.656
13.723
11.809
9.926
8.079
6.273
4.516
2.817
1.19
-0.346
-1.779
-3.105
-4.315
-5.412
-6.402
-7.301
-8.14
-8.953
-9.762
-10.578
-11.405
-12.225
-13.03
-13.805
-14.529
-15.199
-15.806
-16.337
-16.793
-17.168
-17.435
-17.556
-17.467
-17.089
-16.385
-15.335
-13.933
-12.219
-10.244
-8.074
-5.82
-3.562
-1.36
0.72
2.643
4.377
5.86
7.035
7.829
8.14
7.91
7.104
5.689
3.704
1.225
-1.646
-4.749
-7.953
-11.182
-14.356
-17.422
-20.377
-23.194
-25.88
-28.457
-30.871
-33.098
-35.152
-37.03
-38.822
-40.661
-42.65
-44.978
-47.849
-51.278
-55.217
-59.516
-63.765
-67.671
-71.021
-73.392
-74.508
-74.438
-73.386
-71.949
-71.036
-71.042
-72.146
-74.804
-79.105
-84.63
-90.526
-95.045
-96.038
-92.119
-82.291
-64.866
-38.217
-1.806
44.244
97.309
152.25
206.842
260.173
311.952
365.206
416.788
458.216
480.804
471.561
424.774
345.362
242.302
134.328
41.597
-24.203
-56.703
-60.947
-52.038
-41.314
-35.194
-34.329
-31.804
-23.682
-11.497
1.97
12.396
17.401
17.873
15.257
10.748
5.504
0.641
-3.213
-5.639
-6.478
-6.153
-5.124
-3.666
-2.192
-1.157
-0.773
-1.163
-2.325
-4.065
-6.235
-8.716
-11.33
-13.903
-16.299
-18.428
-20.258
-21.791
-23.008
-23.881
-24.401
-24.573
-24.424
-23.974
-23.239
-22.232
-20.976
-19.513
-17.893
-16.164
-14.379
-12.577
-10.787
-9.036
-7.346
-5.735
-4.215
-2.789
-1.454
-0.21
0.939
1.992
2.949
3.811
4.586
5.28
5.9
6.456
6.953
7.401
7.805
8.172
8.506
8.813
9.094
9.353
9.595
9.826
10.052
10.278
10.511
10.754
11.015
11.297
11.605
11.941
12.307
12.705
13.136
13.6
14.097
14.626
15.185
15.772
16.384
17.017
17.667
18.329
18.997
19.664
20.322
20.966
21.586
22.176
22.727
23.231
23.682
24.072
24.394
24.64
24.804
24.88
24.862
24.743
24.518
24.183
23.733
23.164
22.475
21.663
20.726
19.664
18.477
17.164
15.727
14.167
12.488
10.69
8.779
6.758
4.633
2.407
0.088
-2.32
-4.81
-7.376
-10.012
-12.711
-15.468
-18.276
-21.129
-24.022
-26.948
-29.901
-32.876
-35.868
-38.87
-41.878
-44.885
-47.889
-50.884
-53.865
-56.83
-59.773
-62.692
-65.584
-68.444
-71.271
-74.063
-76.817
-79.532
-82.207
-84.84
-87.432
-89.982
-92.489
-94.954
-97.376
-99.755
-102.09
-104.381
-106.627
-108.829
-110.985
-113.096
-115.16
-117.178
-119.15
-121.074
-122.951
-124.781
-126.564
-128.299
-129.987
-131.627
-133.221
-134.768
-136.269
-137.724
-139.135
-140.503
-141.826
-143.108
-144.347
-145.544
-146.7
-147.816
-148.892
-149.93
-150.93
-151.893
-152.822
-153.718
-154.583
-155.418
-156.226
-157.008
-157.766
-158.501
-159.216
-159.911
-160.588
-161.246
-161.888
-162.514
-163.124
-163.717
-164.292
-164.849
-165.386
-165.9
-166.389
-166.85
-167.278
-167.671
-168.024
-168.333
-168.593
-168.8
-168.948
-169.032
-169.046
-168.983
-168.836
-168.6
-168.266
-167.829
-167.282
-166.617
-165.83
-164.913
-163.863
-162.674
-161.342
-159.863
-158.235
-156.454
-154.519
-152.432
-150.191
-147.798
-145.257
-142.571
-139.746
-136.79
-133.713
-130.523
-127.23
-123.847
-120.385
-116.859
-113.279
-109.658
-106.007
-102.341
-98.674
-95.021
-91.399
-87.823
-84.311
-80.881
-77.547
-74.325
-71.224
-68.253
-65.419
-62.732
-60.205
-57.854
-55.689
-53.72
-51.955
-50.4
-49.052
-47.9
-46.919
-46.079
-45.349
-44.709
-44.141
-43.63
-43.157
-42.699
-42.236
-41.746
-41.209
-40.599
-39.897
-39.087
-38.18
-37.222
-36.269
-35.394
-34.655
-34.074
-33.684
-33.527
-33.637
-34.064
-34.844
-35.96
-37.449
-39.402
-41.794
-44.505
-47.268
-49.583
-51.004
-51.189
-49.718
-46.3
-40.982
-34.03
-26.203
-18.687
-12.499
-8.611
-7.834
-10.26
-15.333
-21.827
-27.54
-30.049
-26.663
-14.129
9.729
46.02
93.5
147.527
205.015
264.093
323.611
385.136
442.802
484.421
500.425
480.334
424.141
345.512
254.441
162.711
82.489
14.383
-36.646
-64.948
-76.621
-73.712
-60.645
-46.875
-31.917
-16.192
-2.506
10.119
19.39
23.188
22.878
19.642
15.004
11.07
8.855
8.599
10.565
14.563
19.948
26.158
32.568
38.465
43.506
47.612
50.697
52.849
54.271
55.097
55.519
55.75
55.861
55.868
55.891
56.074
56.31
56.44
56.646
56.941
57.283
58.155
58.235
56.217
53.891
51.779
53.195
62.126
74.096
86.101
93.684
90.734
82.561
73.679
67.175
68.179
73.006
77.927
82.122
83.336
82.903
82.532
81.913
81.27
80.503
79.288
77.867
76.442
74.971
73.457
71.939
70.428
68.929
67.446
65.961
64.444
62.922
61.425
59.96
58.542
57.183
55.891
54.682
53.573
52.568
51.675
50.899
50.243
49.711
49.308
49.033
48.886
48.866
48.97
49.193
49.531
49.977
50.523
51.16
51.879
52.669
53.52
54.421
55.36
56.324
57.302
58.28
59.246
60.188
61.091
61.943
62.732
63.445
64.07
64.598
65.016
65.316
65.489
65.527
65.423
65.173
64.771
64.213
63.497
62.622
61.588
60.396
59.047
57.546
55.894
54.098
52.162
50.092
47.896
45.579
43.149
40.615
37.984
35.267
32.471
29.606
26.682
23.708
20.693
17.646
14.577
11.495
8.408
5.325
2.254
-0.798
-3.823
-6.815
-9.767
-12.674
-15.531
-18.335
-21.083
-23.77
-26.396
-28.957
-31.452
-33.879
-36.238
-38.527
-40.744
-42.89
-44.964
-46.964
-48.891
-50.745
-52.525
-54.23
-55.861
-57.416
-58.896
-60.299
-61.625
-62.873
-64.044
-65.135
-66.148
-67.081
-67.934
-68.704
-69.392
-69.993
-70.508
-70.933
-71.266
-71.504
-71.646
-71.688
-71.631
-71.471
-71.209
-70.842
-70.372
-69.798
-69.121
-68.342
-67.461
-66.482
-65.407
-64.239
-62.982
-61.64
-60.217
-58.719
-57.15
-55.516
-53.82
-52.069
-50.267
-48.421
-46.535
-44.617
-42.673
-40.709
-38.733
-36.751
-34.771
-32.8
-30.844
-28.911
-27.005
-25.133
-23.299
-21.509
-19.767
-18.076
-16.438
-14.856
-13.331
-11.864
-10.455
-9.103
-7.806
-6.563
-5.37
-4.226
-3.128
-2.072
-1.056
-0.076
0.87
1.786
2.675
3.542
4.391
5.225
6.048
6.865
7.678
8.491
9.308
10.131
10.961
11.8
12.648
13.506
14.372
15.243
16.117
16.989
17.857
18.714
19.557
20.377
21.168
21.926
22.644
23.316
23.934
24.489
24.972
25.378
25.701
25.932
26.063
26.083
25.986
25.771
25.438
24.982
24.395
23.666
22.789
21.772
20.623
19.35
17.964
16.474
14.901
13.282
11.654
10.05
8.488
6.977
5.534
4.184
2.965
1.915
1.051
0.369
-0.133
-0.45
-0.585
-0.554
-0.413
-0.239
-0.1
-0.056
-0.132
-0.355
-0.745
-1.302
-2.058
-3.048
-4.284
-5.785
-7.534
-9.456
-11.509
-13.668
-15.774
-17.603
-18.782
-18.749
-17.181
-13.974
-9.095
-2.559
5.636
15.355
25.967
36.305
45.441
53.017
59.263
64.701
69.635
74.692
81.118
90.865
106.481
129.76
160.814
199.234
243.208
288.682
333.457
375.31
412.742
448.242
479.175
499.026
498.91
466.273
398.119
300.337
187.939
84.053
4.229
-42.138
-56.768
-53.407
-41.987
-31.206
-24.463
-16.762
-6.78
5.159
17.881
27.09
31.007
30.377
26.306
20.757
15.633
11.863
9.876
9.917
11.771
14.908
18.877
23.139
27.035
30.23
32.597
34.062
34.77
34.915
34.611
34.03
33.366
32.712
32.162
31.815
31.707
31.889
32.415
33.291
34.529
36.132
38.078
40.339
42.882
45.653
48.61
51.716
54.925
58.195
61.478
64.71
67.848
70.855
73.702
76.367
78.833
81.084
83.117
84.938
86.552
87.963
89.174
90.183
90.994
91.612
92.047
92.308
92.402
92.336
92.117
91.752
91.249
90.615
89.855
88.973
87.973
86.865
85.657
84.359
82.979
81.526
80.01
78.443
76.833
75.189
73.519
71.832
70.134
68.434
66.739
65.055
63.39
61.749
60.138
58.563
57.029
55.541
54.101
52.713
51.379
50.101
48.881
47.718
46.614
45.568
44.579
43.647
42.771
41.948
41.176
40.452
39.774
39.137
38.537
37.969
37.429
36.912
36.413
35.926
35.447
34.969
34.487
33.996
33.489
32.96
32.405
31.816
31.188
30.516
29.796
29.022
28.192
27.302
26.349
25.33
24.245
23.092
21.868
20.574
19.21
17.775
16.271
14.699
13.062
11.363
9.604
7.791
5.927
4.019
2.07
0.089
-1.921
-3.95
-5.993
-8.042
-10.088
-12.123
-14.139
-16.128
-18.082
-19.992
-21.851
-23.652
-25.39
-27.057
-28.649
-30.161
-31.587
-32.924
-34.168
-35.316
-36.365
-37.313
-38.16
-38.906
-39.549
-40.093
-40.538
-40.887
-41.142
-41.307
-41.387
-41.384
-41.306
-41.157
-40.944
-40.673
-40.352
-39.989
-39.59
-39.164
-38.718
-38.26
-37.798
-37.337
-36.884
-36.447
-36.03
-35.64
-35.281
-34.96
-34.679
-34.445
-34.26
-34.126
-34.048
-34.026
-34.061
-34.156
-34.309
-34.521
-34.79
-35.118
-35.5
-35.937
-36.425
-36.961
-37.542
-38.165
-38.825
-39.518
-40.24
-40.986
-41.752
-42.534
-43.328
-44.129
-44.934
-45.738
-46.538
-47.331
-48.114
-48.882
-49.633
-50.365
-51.074
-51.759
-52.418
-53.047
-53.647
-54.214
-54.748
-55.247
-55.711
-56.139
-56.53
-56.883
-57.199
-57.478
-57.72
-57.924
-58.09
-58.219
-58.311
-58.366
-58.384
-58.363
-58.305
-58.208
-58.072
-57.898
-57.685
-57.432
-57.139
-56.805
-56.432
-56.019
-55.566
-55.075
-54.545
-53.98
-53.382
-52.755
-52.102
-51.426
-50.73
-50.018
-49.296
-48.562
-47.82
-47.072
-46.319
-45.568
-44.822
-44.085
-43.362
-42.66
-41.986
-41.346
-40.746
-40.182
-39.656
-39.17
-38.73
-38.349
-38.035
-37.788
-37.615
-37.518
-37.499
-37.556
-37.668
-37.8
-37.926
-38.019
-38.067
-38.069
-38.01
-37.869
-37.626
-37.253
-36.741
-36.097
-35.306
-34.353
-33.243
-32.003
-30.716
-29.494
-28.422
-27.559
-26.93
-26.561
-26.514
-26.854
-27.651
-28.957
-30.765
-33.111
-36.091
-39.703
-43.817
-48.123
-52.061
-55.115
-56.912
-56.998
-55.058
-51.113
-45.399
-38.716
-32.266
-26.971
-23.791
-23.681
-26.84
-32.804
-40.412
-47.342
-51.169
-49.634
-39.522
-17.788
17.405
65.055
120.68
179.503
238.847
301.55
372.147
447.907
519.102
567.547
573.39
530.417
442.679
322.425
190.114
60.679
-53.509
-138.597
-189.5
-204.285
-184.435
-141.26
-86.048
-30.986
9.115
26.52
19.897
-5.141
-34.708
-56.97
-66.794
-65.389
-59.844
-55.986
-55.319
-56.676
-57.298
-56.057
-53.725
-51.429
-50.271
-50.481
-51.749
-53.906
-56.788
-60.235
-64.127
-68.286
-72.542
-76.826
-81.071
-85.181
-89.09
-92.719
-96.002
-98.9
-101.381
-103.436
-105.078
-106.331
-107.224
-107.789
-108.052
-108.041
-107.797
-107.359
-106.777
-106.106
-105.39
-104.664
-103.96
-103.299
-102.698
-102.166
-101.702
-101.297
-100.945
-100.64
-100.381
-100.167
-99.995
-99.857
-99.744
-99.647
-99.557
-99.465
-99.363
-99.244
-99.1
-98.924
-98.71
-98.458
-98.16
-97.812
-97.406
-96.933
-96.387
-95.761
-95.048
-94.243
-93.338
-92.33
-91.215
-89.992
-88.659
-87.214
-85.659
-83.993
-82.217
-80.336
-78.352
-76.269
-74.092
-71.829
-69.485
-67.071
-64.595
-62.067
-59.498
-56.9
-54.285
-51.666
-49.056
-46.468
-43.915
-41.411
-38.97
-36.605
-34.329
-32.155
-30.095
-28.161
-26.363
-24.712
-23.216
-21.883
-20.719
-19.732
-18.925
-18.303
-17.867
-17.62
-17.562
-17.691
-18.007
-18.505
-19.181
-20.028
-21.041
-22.21
-23.526
-24.979
-26.558
-28.25
-30.041
-31.919
-33.869
-35.876
-37.923
-39.996
-42.078
-44.154
-46.208
-48.223
-50.186
-52.081
-53.895
-55.613
-57.224
-58.715
-60.076
-61.295
-62.364
-63.275
-64.02
-64.594
-64.992
-65.211
-65.248
-65.103
-64.776
-64.269
-63.584
-62.726
-61.7
-60.511
-59.169
-57.682
-56.059
-54.311
-52.451
-50.49
-48.441
-46.318
-44.133
-41.902
-39.637
-37.353
-35.062
-32.779
-30.515
-28.284
-26.098
-23.968
-21.906
-19.921
-18.023
-16.221
-14.522
-12.933
-11.46
-10.108
-8.881
-7.783
-6.815
-5.98
-5.277
-4.706
-4.264
-3.949
-3.757
-3.683
-3.721
-3.864
-4.105
-4.436
-4.85
-5.338
-5.891
-6.5
-7.157
-7.852
-8.577
-9.324
-10.083
-10.847
-11.607
-12.356
-13.088
-13.796
-14.473
-15.114
-15.714
-16.267
-16.769
-17.217
-17.606
-17.932
-18.195
-18.392
-18.521
-18.584
-18.579
-18.508
-18.372
-18.174
-17.916
-17.601
-17.233
-16.816
-16.352
-15.845
-15.301
-14.722
-14.112
-13.475
-12.813
-12.13
-11.429
-10.712
-9.981
-9.24
-8.489
-7.731
-6.969
-6.204
-5.437
-4.671
-3.909
-3.15
-2.399
-1.655
-0.92
-0.195
0.518
1.218
1.905
2.578
3.237
3.882
4.511
5.123
5.719
6.297
6.856
7.393
7.904
8.383
8.827
9.231
9.59
9.898
10.149
10.339
10.467
10.528
10.521
10.441
10.283
10.045
9.721
9.307
8.798
8.191
7.483
6.671
5.756
4.737
3.607
2.365
0.999
-0.495
-2.12
-3.875
-5.758
-7.752
-9.839
-11.983
-14.143
-16.285
-18.372
-20.366
-22.233
-23.93
-25.412
-26.652
-27.62
-28.288
-28.641
-28.663
-28.364
-27.79
-27.01
-26.12
-25.221
-24.399
-23.74
-23.332
-23.283
-23.728
-24.762
-26.426
-28.73
-31.635
-35.148
-39.346
-44.108
-49.122
-54.05
-58.459
-62.091
-64.96
-66.845
-67.233
-65.887
-62.83
-58.244
-52.783
-46.754
-39.707
-31.464
-22.261
-12.027
-0.483
12.809
29.565
51.605
79.1
112.383
150.696
190.92
232.197
274.61
318.252
365.902
413.714
451.42
468.674
453.347
405.174
335.883
257.054
182.743
119.087
63.095
15.18
-24.543
-55.294
-73.225
-78.21
-73.248
-60.912
-44.842
-28.971
-15.319
-5.201
0.394
1.814
0.066
-4.011
-9.111
-13.594
-16.65
-17.896
-17.194
-14.992
-11.786
-7.931
-3.981
-0.54
2.083
3.741
4.429
4.347
3.651
2.449
0.901
-0.826
-2.603
-4.303
-5.813
-7.067
-8.012
-8.597
-8.797
-8.594
-7.978
-6.958
-5.561
-3.821
-1.775
0.543
3.104
5.873
8.806
11.848
14.937
18.025
21.076
24.062
26.96
29.75
32.415
34.952
37.364
39.656
41.827
43.874
45.792
47.576
49.231
50.76
52.168
53.457
54.628
55.683
56.627
57.461
58.188
58.808
59.32
59.725
60.029
60.236
60.354
60.389
60.35
60.244
60.084
59.877
59.634
59.364
59.074
58.776
58.477
58.187
57.915
57.669
57.457
57.287
57.165
57.099
57.093
57.153
57.282
57.483
57.758
58.109
58.535
59.035
59.608
60.251
60.961
61.733
62.561
63.438
64.358
65.31
66.285
67.273
68.263
69.241
70.197
71.117
71.989
72.799
73.534
74.182
74.729
75.164
75.473
75.646
75.671
75.538
75.239
74.765
74.11
73.268
72.234
71.006
69.582
67.961
66.146
64.137
61.939
59.559
57.003
54.28
51.4
48.376
45.221
41.949
38.577
35.122
31.603
28.039
24.449
20.855
17.277
13.738
10.259
6.861
3.566
0.394
-2.634
-5.499
-8.183
-10.669
-12.94
-14.983
-16.783
-18.329
-19.61
-20.619
-21.348
-21.793
-21.949
-21.817
-21.396
-20.69
-19.703
-18.442
-16.914
-15.131
-13.103
-10.845
-8.372
-5.701
-2.849
0.164
3.318
6.592
9.964
13.412
16.914
20.448
23.992
27.524
31.025
34.472
37.847
41.132
44.307
47.357
50.266
53.02
55.606
58.013
60.232
62.253
64.07
65.679
67.074
68.256
69.222
69.973
70.513
70.846
70.976
70.911
70.66
70.231
69.636
68.885
67.99
66.965
65.821
64.571
63.229
61.806
60.317
58.773
57.187
55.569
53.932
52.285
50.638
49
47.379
45.782
44.214
42.682
41.19
39.741
38.338
36.982
35.675
34.416
33.205
32.039
30.914
29.829
28.777
27.755
26.756
25.774
24.802
23.834
22.863
21.882
20.884
19.863
18.812
17.726
16.597
15.423
14.197
12.917
11.578
10.179
8.719
7.197
5.612
3.965
2.256
0.49
-1.333
-3.208
-5.132
-7.099
-9.104
-11.139
-13.198
-15.273
-17.356
-19.439
-21.513
-23.569
-25.597
-27.588
-29.533
-31.422
-33.243
-34.985
-36.637
-38.192
-39.64
-40.973
-42.184
-43.267
-44.217
-45.034
-45.718
-46.263
-46.668
-46.928
-47.04
-47.009
-46.844
-46.546
-46.118
-45.568
-44.901
-44.133
-43.281
-42.347
-41.331
-40.236
-39.06
-37.823
-36.541
-35.223
-33.886
-32.532
-31.162
-29.805
-28.479
-27.183
-25.918
-24.666
-23.398
-22.135
-20.881
-19.62
-18.352
-17.045
-15.677
-14.254
-12.771
-11.221
-9.593
-7.844
-5.942
-3.91
-1.773
0.427
2.626
4.814
6.945
8.911
10.626
12.001
12.967
13.503
13.57
13.095
12.012
10.247
7.755
4.569
0.741
-3.657
-8.524
-13.758
-19.18
-24.565
-29.705
-34.39
-38.432
-41.624
-43.657
-44.259
-43.178
-40.007
-34.45
-26.415
-15.945
-3.473
10.408
25.418
41.271
57.252
72.822
88.135
104.059
122.11
144.009
169.226
195.205
222.614
252.983
288.691
334.948
386.771
431.749
460.076
458.862
424.923
369.606
299.831
224.341
154.171
88.763
32.083
-9.092
-38.85
-57.488
-66.623
-73.107
-75.754
-73.934
-69.949
-63.796
-58.119
-55.489
-55.76
-58.445
-62.542
-66.788
-70.165
-71.989
-71.914
-69.798
-65.95
-60.979
-55.361
-49.624
-44.365
-39.888
-36.378
-33.958
-32.54
-32.007
-32.281
-33.203
-34.61
-36.405
-38.474
-40.72
-43.052
-45.326
-47.429
-49.294
-50.867
-52.132
-53.082
-53.702
-54.004
-54.03
-53.816
-53.405
-52.832
-52.119
-51.302
-50.428
-49.548
-48.72
-47.987
-47.37
-46.887
-46.546
-46.344
-46.281
-46.341
-46.497
-46.73
-47.024
-47.362
-47.737
-48.131
-48.527
-48.905
-49.246
-49.534
-49.755
-49.892
-49.932
-49.862
-49.673
-49.357
-48.909
-48.322
-47.588
-46.701
-45.654
-44.441
-43.058
-41.5
-39.764
-37.849
-35.754
-33.482
-31.036
-28.421
-25.642
-22.708
-19.625
-16.404
-13.053
-9.583
-6.005
-2.331
1.425
5.251
9.133
13.055
17.002
20.959
24.909
28.837
32.725
36.559
40.323
44
47.577
51.038
54.37
57.557
60.586
63.444
66.119
68.599
70.874
72.933
74.769
76.374
77.743
78.869
79.749
80.379
80.756
80.88
80.749
80.363
79.723
78.832
77.692
76.308
74.685
72.83
70.748
68.448
65.938
63.227
60.325
57.241
53.987
50.573
47.012
43.316
39.498
35.572
31.551
27.449
23.279
19.057
14.796
10.509
6.21
1.913
-2.37
-6.626
-10.841
-15.004
-19.102
-23.124
-27.059
-30.896
-34.626
-38.24
-41.728
-45.085
-48.302
-51.373
-54.293
-57.057
-59.661
-62.102
-64.378
-66.485
-68.425
-70.196
-71.8
-73.238
-74.513
-75.627
-76.585
-77.39
-78.047
-78.561
-78.938
-79.184
-79.303
-79.304
-79.192
-78.974
-78.659
-78.252
-77.763
-77.197
-76.563
-75.868
-75.119
-74.324
-73.489
-72.622
-71.729
-70.816
-69.889
-68.955
-68.019
-67.085
-66.16
-65.247
-64.351
-63.475
-62.623
-61.798
-61.001
-60.237
-59.507
-58.813
-58.157
-57.541
-56.966
-56.434
-55.946
-55.502
-55.103
-54.749
-54.441
-54.179
-53.962
-53.789
-53.66
-53.575
-53.532
-53.531
-53.57
-53.649
-53.766
-53.921
-54.111
-54.337
-54.595
-54.885
-55.205
-55.553
-55.928
-56.328
-56.751
-57.194
-57.656
-58.134
-58.626
-59.128
-59.637
-60.149
-60.663
-61.173
-61.678
-62.173
-62.655
-63.122
-63.571
-63.998
-64.402
-64.779
-65.128
-65.445
-65.727
-65.974
-66.182
-66.349
-66.473
-66.551
-66.583
-66.567
-66.502
-66.385
-66.217
-65.995
-65.72
-65.39
-65.007
-64.569
-64.077
-63.532
-62.935
-62.288
-61.593
-60.851
-60.065
-59.237
-58.369
-57.463
-56.522
-55.547
-54.54
-53.503
-52.44
-51.352
-50.243
-49.115
-47.97
-46.811
-45.642
-44.465
-43.285
-42.103
-40.923
-39.749
-38.586
-37.437
-36.308
-35.202
-34.126
-33.085
-32.086
-31.133
-30.233
-29.389
-28.608
-27.895
-27.255
-26.691
-26.204
-25.8
-25.482
-25.255
-25.122
-25.086
-25.149
-25.317
-25.595
-25.988
-26.497
-27.116
-27.844
-28.679
-29.624
-30.683
-31.856
-33.133
-34.506
-35.972
-37.519
-39.137
-40.798
-42.457
-44.076
-45.624
-47.078
-48.429
-49.654
-50.724
-51.614
-52.303
-52.786
-53.068
-53.143
-52.995
-52.636
-52.096
-51.443
-50.787
-50.21
-49.773
-49.527
-49.49
-49.693
-50.184
-50.982
-52.102
-53.549
-55.298
-57.381
-59.868
-62.697
-65.691
-68.506
-70.569
-71.361
-70.449
-67.379
-61.864
-53.895
-43.767
-32.315
-20.851
-10.732
-3.214
0.804
1.196
-1.648
-6.746
-11.901
-14.14
-9.99
4.553
30.831
66.781
110.693
160.403
218.124
291.463
379.812
474.768
557.776
601.87
594.788
538.725
447.486
342.606
234.303
126.57
24.198
-65.249
-127.804
-154.153
-146.914
-119.358
-88.456
-65.31
-51.772
-42.874
-34.098
-24.5
-15.97
-11.835
-12.792
-17.235
-23.143
-28.076
-30.864
-31.452
-29.786
-26.245
-21.45
-15.936
-10.404
-5.582
-1.796
0.853
2.36
2.906
2.656
1.739
0.353
-1.317
-3.143
-5.016
-6.844
-8.534
-10
-11.175
-12.015
-12.501
-12.626
-12.384
-11.791
-10.885
-9.703
-8.282
-6.658
-4.855
-2.91
-0.869
1.213
3.277
5.277
7.186
8.978
10.636
12.15
13.515
14.734
15.825
16.798
17.658
18.409
19.052
19.592
20.04
20.404
20.694
20.918
21.083
21.195
21.264
21.296
21.295
21.263
21.204
21.122
21.023
20.914
20.801
20.692
20.593
20.512
20.456
20.433
20.449
20.507
20.614
20.773
20.988
21.264
21.604
22.009
22.484
23.029
23.647
24.339
25.107
25.949
26.865
27.855
28.917
30.048
31.245
32.504
33.819
35.188
36.602
38.058
39.547
41.062
42.597
44.142
45.691
47.234
48.762
50.267
51.739
53.169
54.55
55.871
57.126
58.306
59.402
60.407
61.313
62.113
62.8
63.365
63.804
64.109
64.276
64.3
64.177
63.903
63.477
62.898
62.164
61.276
60.235
59.043
57.703
56.219
54.596
52.838
50.953
48.948
46.831
44.61
42.296
39.897
37.424
34.889
32.301
29.673
27.017
24.342
21.663
18.991
16.338
13.715
11.135
8.61
6.149
3.763
1.463
-0.744
-2.848
-4.842
-6.719
-8.475
-10.102
-11.598
-12.959
-14.183
-15.268
-16.215
-17.025
-17.698
-18.239
-18.651
-18.938
-19.107
-19.164
-19.115
-18.969
-18.733
-18.418
-18.031
-17.582
-17.082
-16.541
-15.969
-15.376
-14.771
-14.165
-13.567
-12.985
-12.428
-11.903
-11.418
-10.979
-10.593
-10.265
-10
-9.802
-9.674
-9.621
-9.643
-9.742
-9.919
-10.173
-10.504
-10.91
-11.389
-11.937
-12.551
-13.227
-13.96
-14.744
-15.574
-16.443
-17.345
-18.274
-19.223
-20.185
-21.155
-22.125
-23.091
-24.047
-24.989
-25.911
-26.811
-27.684
-28.528
-29.339
-30.115
-30.853
-31.553
-32.212
-32.83
-33.405
-33.937
-34.427
-34.873
-35.277
-35.64
-35.963
-36.248
-36.496
-36.711
-36.896
-37.053
-37.186
-37.301
-37.4
-37.488
-37.569
-37.647
-37.725
-37.808
-37.898
-37.998
-38.111
-38.239
-38.383
-38.546
-38.728
-38.932
-39.157
-39.405
-39.677
-39.974
-40.296
-40.643
-41.017
-41.417
-41.845
-42.302
-42.786
-43.298
-43.838
-44.404
-44.997
-45.612
-46.248
-46.901
-47.568
-48.246
-48.93
-49.616
-50.3
-50.977
-51.643
-52.295
-52.927
-53.536
-54.116
-54.664
-55.175
-55.646
-56.073
-56.451
-56.776
-57.044
-57.252
-57.397
-57.474
-57.48
-57.409
-57.26
-57.029
-56.713
-56.311
-55.82
-55.239
-54.569
-53.815
-52.979
-52.067
-51.082
-50.032
-48.922
-47.762
-46.556
-45.308
-44.026
-42.713
-41.379
-40.032
-38.681
-37.333
-36
-34.691
-33.418
-32.188
-31.007
-29.875
-28.798
-27.784
-26.842
-25.987
-25.23
-24.578
-24.04
-23.625
-23.329
-23.141
-23.039
-22.989
-22.966
-22.951
-22.926
-22.88
-22.789
-22.622
-22.364
-21.995
-21.499
-20.862
-20.064
-19.087
-17.964
-16.754
-15.525
-14.37
-13.342
-12.471
-11.819
-11.446
-11.429
-11.861
-12.789
-14.219
-16.188
-18.764
-21.931
-25.588
-29.437
-32.996
-35.821
-37.561
-37.97
-36.867
-34.28
-30.45
-25.869
-21.406
-17.938
-16.148
-16.351
-18.397
-21.541
-24.679
-26.471
-24.967
-18.101
-3.893
19.217
51.665
92.752
141.201
195.015
250.963
305.424
354.149
392.253
416.302
424.073
413.332
385.114
342.237
285.505
218.746
144.121
62.383
-17.136
-86.571
-138.207
-164.333
-170.344
-162.684
-147.664
-133.523
-119.754
-106.323
-94.924
-84.658
-77.666
-75.253
-76.009
-79.238
-83.488
-86.728
-88.273
-87.928
-85.598
-81.781
-77.053
-71.803
-66.545
-61.859
-58.009
-55.074
-53.048
-51.725
-50.915
-50.494
-50.296
-50.17
-50.006
-49.692
-49.115
-48.221
-46.97
-45.331
-43.304
-40.884
-38.072
-34.897
-31.407
-27.654
-23.688
-19.559
-15.304
-10.967
-6.605
-2.277
1.95
6.026
9.916
13.591
17.032
20.219
23.139
25.791
28.187
30.335
32.24
33.907
35.337
36.538
37.524
38.308
38.906
39.33
39.594
39.713
39.701
39.575
39.348
39.034
38.644
38.193
37.7
37.181
36.656
36.142
35.658
35.223
34.855
34.574
34.395
34.335
34.407
34.626
35.006
35.556
36.289
37.212
38.332
39.656
41.188
42.928
44.879
47.037
49.401
51.964
54.722
57.666
60.786
64.072
67.512
71.093
74.8
78.617
82.528
86.515
90.559
94.641
98.741
102.838
106.911
110.939
114.9
118.774
122.54
126.177
129.667
132.989
136.126
139.061
141.777
144.261
146.499
148.479
150.192
151.628
152.782
153.646
154.219
154.496
154.479
154.168
153.565
152.674
151.502
150.055
148.343
146.375
144.163
141.72
139.061
136.199
133.153
129.939
126.576
123.081
119.476
115.78
112.012
108.194
104.346
100.487
96.638
92.817
89.042
85.332
81.702
78.169
74.748
71.453
68.296
65.29
62.445
59.77
57.274
54.963
52.845
50.921
49.197
47.674
46.351
45.229
44.306
43.578
43.04
42.688
42.513
42.508
42.664
42.971
43.418
43.994
44.687
45.484
46.373
47.341
48.375
49.462
50.59
51.745
52.915
54.088
55.252
56.394
57.504
58.57
59.581
60.529
61.403
62.194
62.895
63.497
63.993
64.378
64.645
64.79
64.808
64.698
64.456
64.081
63.572
62.929
62.155
61.249
60.215
59.054
57.771
56.368
54.849
53.218
51.48
49.638
47.697
45.662
43.537
41.327
39.038
36.674
34.24
31.741
29.183
26.571
23.91
21.206
18.464
15.689
12.887
10.063
7.223
4.372
1.514
-1.345
-4.2
-7.048
-9.883
-12.702
-15.501
-18.275
-21.02
-23.731
-26.403
-29.032
-31.61
-34.134
-36.596
-38.99
-41.31
-43.55
-45.702
-47.76
-49.716
-51.565
-53.299
-54.911
-56.394
-57.743
-58.952
-60.015
-60.928
-61.687
-62.286
-62.724
-62.997
-63.105
-63.044
-62.815
-62.415
-61.846
-61.108
-60.205
-59.139
-57.914
-56.536
-55.014
-53.357
-51.576
-49.682
-47.689
-45.61
-43.46
-41.253
-39.003
-36.727
-34.437
-32.151
-29.886
-27.66
-25.489
-23.393
-21.39
-19.496
-17.729
-16.104
-14.627
-13.308
-12.16
-11.196
-10.436
-9.894
-9.579
-9.5
-9.666
-10.077
-10.728
-11.598
-12.65
-13.852
-15.173
-16.593
-18.099
-19.669
-21.267
-22.857
-24.4
-25.868
-27.25
-28.52
-29.65
-30.632
-31.49
-32.3
-33.167
-34.174
-35.368
-36.772
-38.415
-40.362
-42.7
-45.508
-48.838
-52.688
-57.07
-62.065
-67.677
-73.747
-79.944
-85.715
-90.507
-93.974
-95.887
-96.003
-94.33
-91.19
-87.161
-83.246
-80.489
-79.554
-80.635
-83.583
-87.611
-91.181
-92.564
-89.668
-79.887
-60.803
-30.908
10.504
61.4
116.938
172.988
226.449
277.913
330.643
384.734
435.071
467.645
465.671
417.661
322.478
197.135
67.946
-38.254
-102.281
-123.642
-114.504
-93.626
-77.597
-72.275
-75.93
-81.987
-85.417
-86.044
-86.134
-89.17
-96.431
-106.644
-117.786
-127.611
-134.973
-139.779
-142.064
-142.043
-140.122
-136.765
-132.711
-128.776
-125.411
-122.815
-121.039
-120.024
-119.744
-120.19
-121.269
-122.839
-124.783
-127.005
-129.45
-132.074
-134.799
-137.504
-140.042
-142.297
-144.2
-145.719
-146.841
-147.554
-147.842
-147.708
-147.18
-146.293
-145.084
-143.586
-141.822
-139.831
-137.662
-135.373
-133.029
-130.679
-128.355
-126.077
-123.859
-121.71
-119.638
-117.642
-115.71
-113.834
-112.01
-110.236
-108.512
-106.836
-105.199
-103.591
-102.004
-100.43
-98.863
-97.299
-95.73
-94.152
-92.563
-90.961
-89.344
-87.71
-86.055
-84.374
-82.662
-80.915
-79.126
-77.292
-75.408
-73.47
-71.476
-69.424
-67.314
-65.147
-62.922
-60.642
-58.31
-55.927
-53.497
-51.024
-48.512
-45.966
-43.391
-40.793
-38.178
-35.553
-32.925
-30.301
-27.687
-25.093
-22.524
-19.99
-17.496
-15.052
-12.665
-10.342
-8.092
-5.923
-3.841
-1.854
0.031
1.807
3.47
5.015
6.436
7.732
8.9
9.937
10.843
11.616
12.258
12.767
13.146
13.394
13.515
13.511
13.384
13.137
12.775
12.3
11.717
11.03
10.245
9.365
8.397
7.346
6.217
5.018
3.753
2.431
1.059
-0.358
-1.812
-3.295
-4.802
-6.325
-7.858
-9.396
-10.932
-12.462
-13.98
-15.482
-16.963
-18.42
-19.848
-21.244
-22.605
-23.927
-25.208
-26.445
-27.637
-28.78
-29.874
-30.917
-31.907
-32.845
-33.728
-34.558
-35.334
-36.056
-36.725
-37.343
-37.911
-38.43
-38.902
-39.329
-39.714
-40.057
-40.362
-40.629
-40.861
-41.058
-41.222
-41.354
-41.454
-41.523
-41.562
-41.571
-41.55
-41.499
-41.417
-41.305
-41.161
-40.984
-40.773
-40.527
-40.243
-39.921
-39.558
-39.151
-38.699
-38.198
-37.646
-37.041
-36.379
-35.657
-34.872
-34.021
-33.102
-32.111
-31.047
-29.907
-28.69
-27.395
-26.022
-24.57
-23.04
-21.433
-19.749
-17.991
-16.161
-14.261
-12.296
-10.268
-8.184
-6.047
-3.865
-1.643
0.611
2.889
5.184
7.488
9.792
12.086
14.362
16.61
18.822
20.986
23.093
25.133
27.097
28.976
30.76
32.443
34.015
35.47
36.803
38.007
39.079
40.014
40.808
41.458
41.963
42.322
42.534
42.6
42.523
42.305
41.951
41.468
40.86
40.135
39.301
38.365
37.337
36.228
35.047
33.806
32.515
31.186
29.833
28.466
27.099
25.742
24.405
23.1
21.835
20.619
19.459
18.36
17.328
16.368
15.485
14.682
13.962
13.327
12.78
12.324
11.959
11.684
11.496
11.392
11.367
11.416
11.531
11.701
11.916
12.167
12.45
12.758
13.084
13.414
13.725
14.006
14.248
14.445
14.586
14.669
14.69
14.667
14.636
14.63
14.678
14.801
15.001
15.292
15.696
16.239
16.947
17.826
18.86
20.044
21.389
22.879
24.48
26.108
27.62
28.895
29.839
30.378
30.473
30.065
29.075
27.429
25.078
22.001
18.235
13.791
8.605
2.74
-3.578
-9.947
-15.74
-20.343
-23.315
-24.332
-23.072
-19.492
-13.942
-7.024
0.192
6.431
10.761
12.809
12.593
10.861
9.252
9.546
13.9
25.435
47.029
80.118
125.446
180.843
240.779
302.32
363.035
420.818
477.548
527.444
560.159
567.535
537.338
470.461
377.899
269.767
166.373
78.882
10.293
-33.547
-59.765
-73.505
-75.671
-73.071
-65.412
-52.569
-38.663
-24.543
-12.809
-6.149
-4.261
-6.447
-11.437
-17.291
-22.281
-25.519
-26.613
-25.478
-22.578
-18.468
-13.615
-8.71
-4.485
-1.306
0.64
1.325
0.95
-0.335
-2.424
-5.131
-8.281
-11.715
-15.286
-18.879
-22.386
-25.71
-28.772
-31.512
-33.894
-35.907
-37.547
-38.824
-39.777
-40.432
-40.824
-40.987
-40.945
-40.735
-40.408
-40.015
-39.614
-39.25
-38.948
-38.728
-38.604
-38.58
-38.652
-38.81
-39.03
-39.296
-39.594
-39.914
-40.248
-40.584
-40.906
-41.198
-41.446
-41.636
-41.757
-41.798
-41.749
-41.601
-41.349
-40.987
-40.514
-39.925
-39.215
-38.379
-37.411
-36.305
-35.059
-33.669
-32.13
-30.441
-28.602
-26.613
-24.476
-22.196
-19.774
-17.216
-14.528
-11.716
-8.789
-5.754
-2.621
0.602
3.904
7.273
10.698
14.169
17.672
21.195
24.726
28.251
31.759
35.235
38.668
42.045
45.352
48.577
51.708
54.732
57.637
60.412
63.046
65.527
67.848
69.997
71.968
73.753
75.345
76.738
77.928
78.911
79.684
80.245
80.592
80.724
80.644
80.352
79.85
79.141
78.23
77.121
75.818
74.329
72.659
70.815
68.807
66.641
64.328
61.876
59.296
56.599
53.795
50.896
47.912
44.856
41.738
38.572
35.368
32.139
28.897
25.654
22.421
19.21
16.031
12.895
9.812
6.792
3.843
0.975
-1.805
-4.49
-7.072
-9.545
-11.903
-14.142
-16.256
-18.244
-20.101
-21.826
-23.418
-24.876
-26.199
-27.389
-28.446
-29.372
-30.169
-30.84
-31.387
-31.815
-32.128
-32.331
-32.43
-32.429
-32.335
-32.155
-31.895
-31.562
-31.163
-30.705
-30.195
-29.641
-29.05
-28.431
-27.79
-27.135
-26.475
-25.815
-25.163
-24.527
-23.911
-23.322
-22.767
-22.25
-21.778
-21.354
-20.985
-20.674
-20.427
-20.246
-20.136
-20.1
-20.139
-20.257
-20.455
-20.734
-21.096
-21.539
-22.065
-22.673
-23.361
-24.128
-24.971
-25.889
-26.878
-27.933
-29.052
-30.23
-31.461
-32.741
-34.065
-35.427
-36.822
-38.245
-39.689
-41.148
-42.617
-44.089
-45.559
-47.02
-48.466
-49.89
-51.287
-52.649
-53.972
-55.249
-56.474
-57.643
-58.75
-59.791
-60.761
-61.656
-62.472
-63.207
-63.856
-64.418
-64.89
-65.27
-65.558
-65.752
-65.853
-65.86
-65.773
-65.594
-65.324
-64.964
-64.515
-63.98
-63.358
-62.654
-61.869
-61.005
-60.065
-59.053
-57.973
-56.829
-55.626
-54.367
-53.058
-51.703
-50.308
-48.877
-47.417
-45.931
-44.427
-42.909
-41.386
-39.865
-38.356
-36.866
-35.402
-33.973
-32.585
-31.246
-29.959
-28.73
-27.56
-26.456
-25.421
-24.46
-23.582
-22.794
-22.105
-21.521
-21.046
-20.683
-20.435
-20.303
-20.286
-20.383
-20.598
-20.938
-21.41
-22.02
-22.768
-23.652
-24.658
-25.762
-26.939
-28.156
-29.385
-30.598
-31.767
-32.863
-33.869
-34.776
-35.574
-36.242
-36.759
-37.104
-37.272
-37.277
-37.151
-36.943
-36.703
-36.502
-36.393
-36.413
-36.625
-37.103
-37.912
-39.106
-40.701
-42.657
-44.98
-47.744
-50.899
-54.3
-57.611
-60.286
-61.993
-62.646
-62.201
-60.609
-57.823
-53.899
-49.422
-45.604
-43.288
-42.649
-43.322
-44.57
-45.849
-46.511
-45.111
-39.241
-26.539
-5.717
23.207
59.272
101.3
147.549
195.26
240.349
277.848
303.769
315.63
312.021
292.711
258.558
211.383
155.088
95.472
37.575
-14.144
-57.322
-93.061
-120.047
-135.85
-137.753
-120.202
-87.032
-49.952
-20.308
-12.359
-27.594
-53.841
-80.799
-96.723
-98.162
-93.165
-86.625
-82.057
-80.742
-79.153
-76.017
-72.162
-68.129
-64.887
-62.781
-61.332
-60.295
-59.716
-59.525
-59.572
-59.737
-59.915
-60.054
-60.181
-60.27
-60.22
-59.952
-59.41
-58.546
-57.35
-55.822
-53.966
-51.798
-49.34
-46.611
-43.64
-40.454
-37.089
-33.583
-29.976
-26.317
-22.649
-19.005
-15.415
-11.903
-8.48
-5.154
-1.926
1.212
4.264
7.232
10.12
12.929
15.665
18.335
20.948
23.513
26.041
28.541
31.02
33.486
35.947
38.407
40.873
43.346
45.831
48.336
50.867
53.43
56.033
58.681
61.379
64.132
66.946
69.822
72.764
75.772
78.846
81.987
85.194
88.466
91.8
95.192
98.638
102.132
105.67
109.243
112.846
116.469
120.105
123.744
127.379
130.999
134.593
138.152
141.665
145.12
148.505
151.81
155.022
158.13
161.123
163.99
166.72
169.303
171.729
173.988
176.072
177.971
179.679
181.188
182.492
183.586
184.465
185.127
185.569
185.789
185.786
185.56
185.111
184.441
183.552
182.447
181.13
179.606
177.879
175.958
173.85
171.562
169.103
166.483
163.712
160.801
157.759
154.6
151.334
147.975
144.534
141.025
137.462
133.858
130.225
126.578
122.928
119.289
115.673
112.09
108.554
105.074
101.662
98.327
95.079
91.927
88.879
85.943
83.126
80.434
77.871
75.442
73.15
70.997
68.985
67.116
65.389
63.803
62.358
61.051
59.879
58.837
57.921
57.125
56.442
55.865
55.387
55
54.696
54.465
54.301
54.192
54.131
54.108
54.114
54.138
54.171
54.203
54.226
54.23
54.207
54.148
54.045
53.891
53.677
53.398
53.045
52.613
52.094
51.484
50.777
49.968
49.055
48.032
46.899
45.652
44.292
42.817
41.227
39.523
37.705
35.776
33.737
31.591
29.34
26.989
24.54
21.998
19.368
16.654
13.861
10.994
8.057
5.057
1.998
-1.113
-4.27
-7.468
-10.699
-13.957
-17.234
-20.523
-23.816
-27.106
-30.386
-33.648
-36.886
-40.091
-43.257
-46.379
-49.448
-52.461
-55.411
-58.292
-61.1
-63.83
-66.477
-69.038
-71.508
-73.883
-76.159
-78.332
-80.399
-82.357
-84.203
-85.933
-87.546
-89.04
-90.413
-91.665
-92.794
-93.801
-94.687
-95.453
-96.102
-96.634
-97.054
-97.365
-97.571
-97.678
-97.69
-97.611
-97.446
-97.201
-96.881
-96.493
-96.041
-95.531
-94.969
-94.364
-93.725
-93.061
-92.381
-91.695
-91.012
-90.344
-89.699
-89.086
-88.509
-87.972
-87.483
-87.048
-86.673
-86.367
-86.134
-85.981
-85.912
-85.934
-86.047
-86.251
-86.54
-86.909
-87.359
-87.892
-88.517
-89.241
-90.067
-90.993
-92.019
-93.13
-94.308
-95.527
-96.741
-97.915
-99.019
-100.024
-100.913
-101.661
-102.238
-102.621
-102.78
-102.683
-102.311
-101.645
-100.686
-99.477
-98.072
-96.544
-94.986
-93.462
-92.046
-90.825
-89.868
-89.263
-89.085
-89.357
-90.152
-91.58
-93.649
-96.276
-99.209
-101.976
-104.179
-105.498
-105.51
-103.894
-100.566
-95.659
-89.896
-84.342
-79.772
-76.922
-76.444
-78.406
-82.445
-87.647
-91.825
-92.501
-87.809
-75.272
-52.473
-18.56
26.996
82.274
141.337
200.867
259.509
316.114
373.048
425.626
461.718
471.87
447.73
390.057
310.611
218.979
122.374
28.81
-55.664
-122.592
-160.657
-169.222
-156.808
-133.38
-112.325
-98.785
-88.86
-81.077
-73.468
-66.121
-62.952
-64.586
-69.549
-76.429
-82.778
-87.107
-89.354
-89.408
-87.387
-83.89
-79.502
-74.889
-70.816
-67.673
-65.538
-64.425
-64.215
-64.753
-65.916
-67.525
-69.379
-71.346
-73.326
-75.23
-76.977
-78.47
-79.622
-80.371
-80.678
-80.531
-79.926
-78.864
-77.371
-75.473
-73.203
-70.593
-67.669
-64.458
-61.001
-57.344
-53.544
-49.646
-45.683
-41.682
-37.664
-33.642
-29.625
-25.615
-21.603
-17.583
-13.554
-9.518
-5.479
-1.441
2.599
6.641
10.687
14.735
18.782
22.824
26.858
30.878
34.879
38.85
42.783
46.669
50.503
54.28
57.997
61.651
65.238
68.755
72.204
75.582
78.889
82.124
85.286
88.377
91.397
94.348
97.233
100.053
102.811
105.511
108.156
110.75
113.296
115.799
118.263
120.692
123.092
125.466
127.819
130.155
132.478
134.792
137.1
139.403
141.704
144.001
146.296
148.587
150.872
153.146
155.406
157.645
159.857
162.034
164.167
166.246
168.261
170.199
172.047
173.792
175.42
176.916
178.265
179.45
180.456
181.267
181.867
182.239
182.369
182.241
181.841
181.155
180.17
178.875
177.261
175.318
173.039
170.421
167.459
164.152
160.503
156.513
152.187
147.535
142.565
137.289
131.721
125.878
119.777
113.44
106.888
100.145
93.237
86.189
79.031
71.792
64.501
57.189
49.887
42.628
35.441
28.358
21.41
14.627
8.038
1.67
-4.451
-10.3
-15.854
-21.092
-25.996
-30.549
-34.738
-38.551
-41.979
-45.015
-47.655
-49.899
-51.747
-53.204
-54.275
-54.969
-55.299
-55.277
-54.92
-54.244
-53.27
-52.02
-50.516
-48.783
-46.848
-44.735
-42.474
-40.091
-37.614
-35.073
-32.494
-29.905
-27.331
-24.8
-22.335
-19.96
-17.697
-15.565
-13.584
-11.771
-10.141
-8.706
-7.48
-6.47
-5.685
-5.131
-4.813
-4.731
-4.887
-5.279
-5.904
-6.758
-7.834
-9.122
-10.613
-12.295
-14.155
-16.18
-18.355
-20.662
-23.087
-25.612
-28.221
-30.898
-33.625
-36.386
-39.164
-41.944
-44.711
-47.45
-50.148
-52.791
-55.368
-57.867
-60.279
-62.594
-64.805
-66.901
-68.876
-70.723
-72.436
-74.006
-75.428
-76.697
-77.81
-78.767
-79.566
-80.209
-80.698
-81.039
-81.237
-81.299
-81.23
-81.031
-80.707
-80.261
-79.697
-79.018
-78.226
-77.324
-76.316
-75.213
-74.024
-72.755
-71.409
-69.982
-68.476
-66.901
-65.267
-63.587
-61.879
-60.159
-58.458
-56.823
-55.293
-53.91
-52.693
-51.642
-50.766
-50.068
-49.549
-49.215
-49.05
-49.016
-49.097
-49.276
-49.524
-49.81
-50.067
-50.188
-50.09
-49.692
-48.933
-47.793
-46.245
-44.27
-41.894
-39.153
-36.114
-32.88
-29.503
-26.022
-22.514
-19.059
-15.788
-12.887
-10.501
-8.781
-7.901
-7.999
-9.219
-11.673
-15.38
-20.318
-26.422
-33.613
-41.874
-51.212
-61.587
-72.899
-84.954
-97.54
-110.532
-123.696
-136.653
-148.861
-159.57
-168.272
-174.811
-179.088
-181.014
-180.522
-177.545
-172.537
-166.612
-160.555
-154.645
-148.744
-142.271
-134.949
-126.66
-116.327
-101.951
-81.58
-53.665
-17.872
25
74.487
129.714
188.109
246.06
299.062
341.841
370.788
383.592
377.15
351.54
309.079
250.492
179.968
100.296
12.694
-73.09
-148.271
-204.314
-232.997
-239.365
-229.971
-211.508
-192.552
-173.071
-153.691
-136.62
-121.35
-110.34
-104.938
-103.63
-105.588
-109.127
-111.974
-113.325
-112.916
-110.575
-106.806
-102.22
-97.256
-92.553
-88.803
-86.31
-85.157
-85.312
-86.527
-88.592
-91.366
-94.633
-98.172
-101.811
-105.384
-108.783
-111.97
-114.895
-117.517
-119.81
-121.752
-123.344
-124.619
-125.607
-126.341
-126.85
-127.157
-127.297
-127.311
-127.245
-127.151
-127.066
-127.008
-126.993
-127.025
-127.108
-127.241
-127.411
-127.594
-127.771
-127.924
-128.04
-128.111
-128.124
-128.064
-127.915
-127.662
-127.293
-126.8
-126.173
-125.405
-124.488
-123.418
-122.192
-120.81
-119.27
-117.567
-115.698
-113.658
-111.444
-109.053
-106.484
-103.735
-100.804
-97.694
-94.407
-90.947
-87.318
-83.525
-79.572
-75.464
-71.21
-66.814
-62.285
-57.63
-52.856
-47.974
-42.99
-37.917
-32.762
-27.535
-22.248
-16.912
-11.537
-6.138
-0.727
4.682
10.074
15.432
20.74
25.981
31.138
36.195
41.135
45.943
50.603
55.1
59.418
63.544
67.462
71.161
74.626
77.845
80.807
83.5
85.916
88.045
89.88
91.414
92.639
93.548
94.135
94.398
94.336
93.95
93.243
92.218
90.88
89.238
87.304
85.092
82.615
79.885
76.914
73.72
70.322
66.743
63.002
59.109
55.071
50.901
46.616
42.239
37.795
33.303
28.783
24.259
19.761
15.326
10.988
6.779
2.709
-1.215
-4.969
-8.511
-11.766
-14.665
-17.175
-19.305
-21.089
-22.552
-23.699
-24.516
-25.044
-25.399
-25.642
-25.711
-25.376
-24.365
-22.582
-20.218
-17.564
-14.73
-11.868
-9.299
-7.596
-7.532
-9.525
-13.36
-18.427
-24.231
-30.152
-35.4
-39.076
-39.972
-37.246
-30.759
-20.867
-8.155
6.366
21.386
35.717
47.99
57.051
62.156
62.836
59.11
51.722
41.928
30.753
19.116
7.819
-2.473
-11.069
-17.617
-22.422
-26.281
-29.795
-33.286
-36.925
-40.766
-45.011
-49.825
-55.061
-60.326
-65.327
-69.938
-74.187
-78.226
-82.104
-85.787
-89.302
-92.7
-96.04
-99.369
-102.676
-105.907
-109.039
-112.073
-115.02
-117.907
-120.734
-123.475
-126.1
-128.561
-130.822
-132.861
-134.663
-136.219
-137.525
-138.581
-139.394
-139.985
-140.365
-140.542
-140.518
-140.288
-139.851
-139.216
-138.391
-137.391
-136.229
-134.918
-133.468
-131.892
-130.201
-128.402
-126.503
-124.506
-122.414
-120.234
-117.973
-115.64
-113.243
-110.791
-108.293
-105.759
-103.2
-100.624
-98.041
-95.458
-92.883
-90.324
-87.787
-85.28
-82.81
-80.383
-78.006
-75.688
-73.438
-71.265
-69.178
-67.188
-65.301
-63.526
-61.869
-60.334
-58.922
-57.634
-56.47
-55.43
-54.514
-53.719
-53.042
-52.482
-52.032
-51.687
-51.439
-51.276
-51.19
-51.171
-51.207
-51.291
-51.419
-51.592
-51.817
-52.097
-52.427
-52.806
-53.226
-53.675
-54.139
-54.593
-54.999
-55.319
-55.507
-55.521
-55.331
-54.901
-54.195
-53.167
-51.762
-49.955
-47.741
-45.119
-42.081
-38.603
-34.679
-30.367
-25.783
-21.061
-16.356
-11.776
-7.45
-3.607
-0.34
2.358
4.605
6.813
9.378
12.488
16.451
21.624
27.86
34.813
41.781
47.261
50.079
49.563
44.768
35.132
21.246
4.267
-13.558
-28.43
-37.127
-36.96
-24.617
2.297
44.479
101.626
171.247
248.319
328.034
405.367
473.471
526.38
559.68
569.276
555.467
521.51
468.501
400.186
319.783
229.912
141.203
62.843
3.245
-30.01
-41.792
-37.849
-24.478
-10.436
3.893
17.611
28.458
37.11
41.316
39.62
33.473
23.972
13.026
3.147
-4.642
-10.018
-12.743
-13.208
-11.96
-9.463
-6.421
-3.618
-1.446
-0.03
0.599
0.608
0.13
-0.766
-1.935
-3.225
-4.521
-5.725
-6.765
-7.581
-8.108
-8.272
-8.015
-7.299
-6.11
-4.452
-2.339
0.204
3.154
6.479
10.145
14.123
18.373
22.848
27.496
32.252
37.064
41.889
46.69
51.438
56.113
60.7
65.193
69.593
73.9
78.11
82.219
86.22
90.111
93.893
97.571
101.151
104.641
108.045
111.372
114.628
117.817
120.943
124.008
127.009
129.948
132.824
135.64
138.4
141.111
143.78
146.415
149.029
151.629
154.224
156.82
159.419
162.024
164.634
167.244
169.856
172.47
175.093
177.736
180.407
183.105
185.83
188.572
191.312
194.023
196.664
199.189
201.567
203.775
205.8
207.648
209.329
210.852
212.232
213.465
214.541
215.464
216.232
216.855
217.364
217.809
218.269
218.845
219.62
220.652
221.976
223.584
225.435
227.469
229.595
231.744
233.862
235.879
237.729
239.329
240.581
241.372
241.566
240.991
239.483
236.904
233.152
228.192
222.047
214.792
206.553
197.443
187.582
177.118
166.218
155.086
143.92
132.905
122.23
112.104
102.76
94.413
87.245
81.367
76.84
73.667
71.81
71.242
71.89
73.627
76.282
79.621
83.423
87.516
91.745
95.95
99.954
103.573
106.654
109.1
110.832
111.798
111.955
111.236
109.635
107.216
104.089
100.435
96.432
92.199
87.835
83.434
79.087
74.89
70.918
67.2
63.771
60.675
57.967
55.729
54.009
52.796
52.047
51.674
51.579
51.699
51.983
52.376
52.844
53.355
53.887
54.45
55.048
55.665
56.274
56.827
57.283
57.63
57.863
57.993
58.043
58.024
57.945
57.821
57.652
57.433
57.155
56.794
56.323
55.724
54.982
54.09
53.045
51.842
50.471
48.924
47.193
45.267
43.14
40.805
38.255
35.481
32.478
29.241
25.78
22.117
18.268
14.247
10.07
5.752
1.314
-3.212
-7.815
-12.495
-17.25
-22.085
-26.984
-31.916
-36.854
-41.771
-46.65
-51.502
-56.32
-61.082
-65.787
-70.434
-75.033
-79.612
-84.157
-88.603
-92.9
-96.992
-100.847
-104.466
-107.836
-110.935
-113.743
-116.22
-118.346
-120.126
-121.533
-122.528
-123.067
-123.086
-122.583
-121.621
-120.249
-118.516
-116.453
-114.063
-111.367
-108.408
-105.215
-101.816
-98.229
-94.459
-90.539
-86.528
-82.484
-78.48
-74.544
-70.651
-66.797
-62.981
-59.209
-55.507
-51.884
-48.333
-44.868
-41.514
-38.301
-35.26
-32.41
-29.747
-27.272
-24.983
-22.895
-21.042
-19.447
-18.132
-17.116
-16.415
-16.043
-16.022
-16.36
-17.057
-18.118
-19.54
-21.315
-23.439
-25.899
-28.681
-31.766
-35.126
-38.719
-42.505
-46.44
-50.485
-54.616
-58.801
-63.005
-67.183
-71.28
-75.256
-79.092
-82.781
-86.315
-89.686
-92.892
-95.965
-98.968
-101.976
-105.059
-108.254
-111.578
-115.05
-118.669
-122.461
-126.473
-130.715
-135.163
-139.785
-144.518
-149.328
-154.266
-159.218
-163.888
-167.928
-170.888
-172.313
-171.931
-169.533
-164.754
-157.524
-148.247
-137.373
-125.628
-114.338
-104.619
-96.666
-91.012
-86.66
-79.692
-68.992
-54.543
-36.157
-20.006
-7.879
7.34
32.033
79.871
161.378
267.644
383.777
485.678
545.886
555.971
518.019
442.02
345.023
237.92
129.071
30.261
-45.479
-88.717
-96.467
-77.604
-50.589
-28.319
-16.745
-14.183
-11.951
-6.589
0.898
8.382
12.006
11.139
7.751
3.349
-0.388
-2.436
-2.783
-1.385
1.66
5.824
10.548
15.272
19.398
22.612
24.838
26.05
26.332
25.818
24.632
22.945
20.974
18.877
16.776
14.779
12.941
11.319
9.988
8.997
8.376
8.136
8.265
8.745
9.566
10.71
12.145
13.838
15.743
17.808
19.983
22.21
24.442
26.642
28.78
30.833
32.785
34.628
36.359
37.988
39.518
40.951
42.291
43.54
44.703
45.79
46.812
47.781
48.709
49.605
50.476
51.332
52.178
53.023
53.87
54.722
55.584
56.464
57.373
58.323
59.324
60.386
61.514
62.714
63.99
65.344
66.776
68.289
69.882
71.558
73.323
75.184
77.147
79.218
81.395
83.67
86.033
88.472
90.977
93.545
96.17
98.848
101.58
104.359
107.18
110.032
112.893
115.724
118.477
121.092
123.514
125.712
127.67
129.366
130.777
131.852
132.536
132.815
132.686
132.162
131.249
129.913
128.111
125.887
123.378
120.671
117.737
114.361
110.285
105.475
100.159
94.62
88.91
83.072
77.384
72.474
69.129
67.657
67.565
67.936
68.133
67.647
65.832
61.726
54.077
42.208
26.561
8.247
-11.826
-32.987
-54.679
-76.195
-96.481
-114.863
-131.471
-146.932
-161.746
-176.103
-189.947
-203.224
-216.122
-228.712
-240.775
-251.881
-261.653
-269.97
-276.883
-282.497
-286.844
-289.933
-291.84
-292.744
-292.866
-292.355
-291.323
-289.842
-287.99
-285.917
-283.754
-281.589
-279.476
-277.417
-275.401
-273.436
-271.528
-269.648
-267.764
-265.816
-263.731
-261.478
-259.038
-256.389
-253.517
-250.388
-246.972
-243.267
-239.287
-235.054
-230.593
-225.923
-221.063
-216.056
-210.946
-205.782
-200.619
-195.493
-190.426
-185.444
-180.568
-175.816
-171.206
-166.743
-162.425
-158.255
-154.237
-150.374
-146.671
-143.125
-139.728
-136.474
-133.357
-130.369
-127.507
-124.764
-122.137
-119.622
-117.218
-114.924
-112.74
-110.664
-108.694
-106.825
-105.054
-103.376
-101.788
-100.284
-98.861
-97.515
-96.245
-95.048
-93.923
-92.87
-91.885
-90.969
-90.119
-89.335
-88.616
-87.958
-87.363
-86.829
-86.355
-85.94
-85.585
-85.286
-85.044
-84.855
-84.719
-84.634
-84.595
-84.601
-84.647
-84.731
-84.85
-85.001
-85.178
-85.378
-85.596
-85.828
-86.069
-86.312
-86.552
-86.782
-86.995
-87.186
-87.346
-87.47
-87.55
-87.579
-87.551
-87.46
-87.3
-87.067
-86.754
-86.359
-85.88
-85.317
-84.667
-83.933
-83.112
-82.207
-81.219
-80.15
-79
-77.771
-76.463
-75.082
-73.633
-72.125
-70.561
-68.951
-67.301
-65.623
-63.928
-62.229
-60.532
-58.846
-57.183
-55.562
-54.008
-52.541
-51.169
-49.9
-48.736
-47.681
-46.73
-45.87
-45.068
-44.289
-43.503
-42.686
-41.825
-40.899
-39.873
-38.707
-37.355
-35.796
-34.035
-32.083
-29.945
-27.645
-25.235
-22.804
-20.488
-18.414
-16.678
-15.381
-14.615
-14.471
-15.061
-16.474
-18.761
-21.956
-26.035
-30.947
-36.65
-43.031
-49.897
-57.069
-64.306
-71.237
-77.557
-82.875
-86.711
-88.816
-88.901
-86.492
-81.286
-73.354
-62.941
-50.703
-37.388
-23.119
-8.098
7.216
22.579
38.402
55.942
77.333
105.036
138.761
176.079
215.362
254.345
295.502
346.092
406.069
472.071
532.459
562.49
548.244
482.606
366.276
223.802
78.012
-49.069
-132.424
-169.824
-167.726
-138.097
-103.804
-75.973
-56.967
-45.889
-35.441
-23.09
-11.065
-1.659
2.147
0.176
-5.326
-12.102
-17.823
-21.343
-22.519
-21.359
-18.384
-14.242
-9.504
-4.909
-1.076
1.765
3.482
4.038
3.854
3.354
2.534
1.59
0.73
-0.452
-0.46
2.155
5.514
9.081
9.341
2.05
-8.069
-17.874
-22.703
-16.165
-3.991
8.957
19.336
21.661
19.8
17.665
16.084
17.405
20.18
22.574
24.9
26.904
28.689
30.605
32.41
33.924
35.218
36.311
37.183
37.839
38.295
38.567
38.7
38.745
38.694
38.538
38.292
37.965
37.567
37.109
36.594
36.022
35.404
34.753
34.082
33.403
32.729
32.071
31.442
30.859
30.332
29.876
29.501
29.218
29.037
28.969
29.023
29.205
29.523
29.981
30.583
31.333
32.232
33.28
34.476
35.819
37.305
38.933
40.695
42.588
44.603
46.732
48.967
51.297
53.712
56.2
58.747
61.341
63.968
66.612
69.26
71.895
74.501
77.062
79.562
81.986
84.317
86.541
88.643
90.61
92.429
94.088
95.577
96.886
98.007
98.933
99.657
100.174
100.481
100.574
100.454
100.118
99.57
98.811
97.844
96.675
95.31
93.754
92.017
90.105
88.03
85.802
83.433
80.935
78.321
75.606
72.804
69.931
67.001
64.03
61.033
58.026
55.023
52.037
49.084
46.177
43.327
40.548
37.85
35.244
32.739
30.344
28.066
25.913
23.889
22
20.251
18.643
17.18
15.864
14.695
13.674
12.801
12.073
11.489
11.045
10.738
10.562
10.512
10.581
10.764
11.052
11.439
11.916
12.475
13.108
13.806
14.56
15.363
16.204
17.076
17.97
18.879
19.794
20.708
21.614
22.505
23.373
24.214
25.019
25.782
26.499
27.162
27.767
28.308
28.782
29.184
29.509
29.757
29.923
30.006
30.004
29.917
29.744
29.484
29.139
28.711
28.2
27.609
26.941
26.199
25.386
24.506
23.564
22.562
21.506
20.4
19.249
18.058
16.833
15.578
14.3
13.004
11.696
10.383
9.069
7.761
6.465
5.185
3.928
2.698
1.502
0.344
-0.772
-1.84
-2.857
-3.818
-4.72
-5.561
-6.339
-7.051
-7.695
-8.271
-8.776
-9.211
-9.576
-9.869
-10.091
-10.242
-10.324
-10.337
-10.284
-10.165
-9.982
-9.738
-9.434
-9.073
-8.659
-8.192
-7.677
-7.115
-6.512
-5.872
-5.198
-4.495
-3.77
-3.029
-2.279
-1.526
-0.777
-0.038
0.686
1.385
2.055
2.69
3.286
3.837
4.336
4.776
5.15
5.451
5.674
5.814
5.863
5.809
5.646
5.373
4.987
4.481
3.849
3.073
2.144
1.065
-0.16
-1.526
-3.026
-4.651
-6.382
-8.182
-10.013
-11.839
-13.63
-15.377
-17.059
-18.647
-20.11
-21.41
-22.526
-23.47
-24.251
-24.867
-25.342
-25.705
-26.022
-26.404
-26.949
-27.746
-28.88
-30.409
-32.387
-34.848
-37.81
-41.302
-45.342
-49.9
-54.935
-60.357
-66.042
-71.947
-77.944
-83.734
-88.936
-93.003
-95.41
-95.971
-94.569
-90.932
-85.065
-77.099
-67.53
-57.551
-48.04
-39.399
-32.01
-25.824
-20.671
-14.825
-4.103
13.827
39.887
69.886
93.204
109.12
123.635
149.263
208.072
300.659
408.719
506.749
557.958
546.79
482.868
380.972
263.52
147.421
37.496
-57.033
-122.644
-152.518
-145.08
-109.791
-68.182
-34.939
-15.493
-8.522
-5.211
-0.904
3.658
6.747
5.814
0.93
-5.644
-11.799
-16.069
-18.024
-17.778
-15.636
-12.129
-7.852
-3.517
0.16
2.871
4.553
5.215
4.998
4.02
2.38
0.264
-2.148
-4.743
-7.437
-10.165
-12.861
-15.429
-17.791
-19.89
-21.691
-23.186
-24.369
-25.238
-25.809
-26.103
-26.14
-25.942
-25.525
-24.905
-24.111
-23.182
-22.164
-21.098
-20.013
-18.93
-17.866
-16.832
-15.834
-14.87
-13.928
-13
-12.083
-11.176
-10.28
-9.396
-8.52
-7.647
-6.773
-5.894
-5.009
-4.115
-3.208
-2.289
-1.357
-0.413
0.538
1.495
2.458
3.429
4.407
5.395
6.393
7.405
8.434
9.485
10.56
11.663
12.798
13.969
15.178
16.431
17.73
19.079
20.48
21.937
23.454
25.032
26.674
28.382
30.157
31.999
33.907
35.879
37.912
40.001
42.14
44.322
46.539
48.784
51.049
53.326
55.608
57.886
60.154
62.402
64.621
66.797
68.917
70.965
72.924
74.778
76.509
78.102
79.543
80.817
81.914
82.824
83.538
84.042
84.322
84.358
84.136
83.65
82.897
81.883
80.621
79.133
77.446
75.59
73.586
71.449
69.182
66.774
64.215
61.493
58.608
55.575
52.41
49.122
45.716
42.193
38.536
34.718
30.701
26.436
21.897
17.082
12.02
6.773
1.42
-3.944
-9.241
-14.415
-19.416
-24.196
-28.709
-32.908
-36.729
-40.098
-42.927
-45.106
-46.557
-47.232
-47.127
-46.284
-44.774
-42.703
-40.161
-37.221
-33.95
-30.399
-26.618
-22.655
-18.565
-14.408
-10.265
-6.241
-2.422
1.123
4.36
7.285
9.925
12.328
14.539
16.59
18.504
20.289
21.947
23.472
24.857
26.093
27.187
28.16
29.031
29.817
30.521
31.134
31.633
31.987
32.169
32.155
31.926
31.477
30.807
29.923
28.838
27.57
26.133
24.537
22.789
20.897
18.87
16.723
14.469
12.128
9.717
7.257
4.766
2.26
-0.245
-2.737
-5.204
-7.64
-10.034
-12.378
-14.662
-16.876
-19.01
-21.054
-22.999
-24.835
-26.555
-28.15
-29.617
-30.951
-32.148
-33.207
-34.125
-34.9
-35.534
-36.024
-36.372
-36.578
-36.644
-36.572
-36.364
-36.022
-35.552
-34.956
-34.24
-33.408
-32.466
-31.419
-30.274
-29.035
-27.711
-26.308
-24.833
-23.296
-21.706
-20.071
-18.401
-16.707
-14.999
-13.288
-11.583
-9.894
-8.233
-6.607
-5.028
-3.505
-2.048
-0.665
0.633
1.837
2.938
3.926
4.795
5.541
6.156
6.636
6.974
7.158
7.19
7.075
6.794
6.335
5.689
4.841
3.805
2.609
1.237
-0.326
-2.028
-3.824
-5.678
-7.536
-9.426
-11.411
-13.437
-15.419
-17.536
-20.003
-22.668
-25.53
-28.619
-31.429
-35.265
-41.399
-47.981
-54.438
-57.382
-52.762
-45.031
-37.156
-33.558
-40.319
-52.038
-64.134
-73.466
-74.855
-71.995
-68.632
-65.597
-65.177
-66.044
-66.497
-66.866
-66.935
-66.821
-66.875
-66.874
-66.646
-66.261
-65.743
-65.083
-64.297
-63.412
-62.449
-61.455
-60.479
-59.51
-58.54
-57.585
-56.661
-55.794
-55.013
-54.327
-53.752
-53.305
-52.993
-52.817
-52.765
-52.803
-52.903
-53.037
-53.187
-53.347
-53.502
-53.629
-53.703
-53.686
-53.546
-53.27
-52.829
-52.205
-51.428
-50.537
-49.611
-48.769
-48.088
-47.647
-47.553
-47.877
-48.708
-50.152
-52.252
-55.1
-58.855
-63.537
-69.083
-75.299
-81.698
-87.785
-93.159
-97.222
-99.368
-99.395
-97.362
-93.888
-90.281
-87.659
-86.934
-89.155
-95.04
-104.418
-116.289
-128.436
-137.601
-140.623
-134.296
-115.285
-80.924
-31.3
30.593
100.691
175.185
254.261
339.766
428.543
510.535
569.207
589.182
563.936
498.242
404.513
293.545
174.812
57.419
-48.624
-129.758
-177.656
-194.469
-191.144
-181.349
-173.625
-168.881
-162.136
-150.405
-135.164
-119.574
-107.722
-101.252
-99.096
-99.916
-102.352
-104.976
-106.603
-106.551
-104.569
-100.926
-96.257
-91.09
-85.804
-80.899
-76.923
-74.177
-72.764
-72.579
-73.335
-74.81
-76.848
-79.248
-81.792
-84.286
-86.541
-88.431
-89.913
-90.94
-91.475
-91.502
-91.003
-89.986
-88.49
-86.56
-84.241
-81.579
-78.616
-75.402
-71.999
-68.477
-64.91
-61.356
-57.855
-54.436
-51.122
-47.928
-44.871
-41.952
-39.163
-36.496
-33.95
-31.523
-29.22
-27.039
-24.975
-23.02
-21.166
-19.408
-17.743
-16.167
-14.677
-13.269
-11.941
-10.693
-9.525
-8.437
-7.422
-6.476
-5.591
-4.758
-3.97
-3.218
-2.493
-1.784
-1.083
-0.383
0.325
1.049
1.796
2.575
3.394
4.26
5.182
6.167
7.222
8.352
9.564
10.862
12.249
13.728
15.3
16.968
18.73
20.588
22.54
24.584
26.718
28.939
31.242
33.622
36.073
38.588
41.16
43.779
46.437
49.125
51.834
54.554
57.276
59.99
62.686
65.354
67.983
70.562
73.081
75.529
77.895
80.169
82.342
84.404
86.348
88.166
89.851
91.396
92.796
94.045
95.138
96.072
96.844
97.451
97.892
98.166
98.275
98.219
98.001
97.623
97.089
96.403
95.57
94.593
93.48
92.235
90.865
89.378
87.782
86.084
84.294
82.42
80.471
78.457
76.387
74.268
72.111
69.923
67.713
65.49
63.26
61.032
58.813
56.611
54.432
52.283
50.17
48.099
46.073
44.097
42.176
40.314
38.514
36.779
35.112
33.516
31.994
30.547
29.177
27.884
26.67
25.533
24.473
23.489
22.58
21.745
20.981
20.287
19.66
19.099
18.6
18.161
17.778
17.448
17.167
16.932
16.737
16.58
16.455
16.359
16.286
16.233
16.194
16.165
16.138
16.11
16.073
16.023
15.953
15.857
15.73
15.565
15.358
15.104
14.798
14.435
14.011
13.521
12.962
12.33
11.622
10.834
9.965
9.012
7.974
6.85
5.64
4.344
2.961
1.493
-0.059
-1.693
-3.407
-5.198
-7.061
-8.993
-10.988
-13.041
-15.146
-17.298
-19.488
-21.711
-23.959
-26.226
-28.504
-30.786
-33.065
-35.334
-37.586
-39.813
-42.009
-44.167
-46.281
-48.344
-50.352
-52.299
-54.18
-55.991
-57.728
-59.387
-60.965
-62.458
-63.865
-65.184
-66.414
-67.555
-68.606
-69.568
-70.444
-71.235
-71.943
-72.572
-73.125
-73.604
-74.015
-74.36
-74.643
-74.87
-75.043
-75.169
-75.251
-75.295
-75.304
-75.283
-75.235
-75.165
-75.076
-74.971
-74.855
-74.729
-74.599
-74.466
-74.333
-74.205
-74.084
-73.972
-73.87
-73.782
-73.707
-73.647
-73.603
-73.575
-73.563
-73.567
-73.588
-73.624
-73.676
-73.743
-73.824
-73.919
-74.025
-74.142
-74.268
-74.402
-74.542
-74.689
-74.84
-74.995
-75.153
-75.312
-75.473
-75.632
-75.789
-75.94
-76.082
-76.214
-76.33
-76.429
-76.507
-76.561
-76.588
-76.584
-76.546
-76.471
-76.355
-76.194
-75.984
-75.722
-75.404
-75.027
-74.589
-74.086
-73.516
-72.877
-72.168
-71.387
-70.533
-69.605
-68.602
-67.523
-66.369
-65.14
-63.838
-62.467
-61.029
-59.532
-57.983
-56.388
-54.757
-53.099
-51.423
-49.74
-48.058
-46.386
-44.735
-43.114
-41.533
-40.007
-38.547
-37.165
-35.876
-34.691
-33.624
-32.687
-31.888
-31.231
-30.72
-30.363
-30.169
-30.155
-30.331
-30.7
-31.266
-32.03
-32.988
-34.132
-35.433
-36.851
-38.352
-39.902
-41.479
-43.076
-44.669
-46.231
-47.727
-49.111
-50.363
-51.476
-52.431
-53.207
-53.802
-54.238
-54.592
-54.979
-55.477
-56.135
-56.967
-57.985
-59.245
-60.812
-62.752
-65.118
-67.892
-71.091
-74.805
-79.014
-83.568
-88.158
-92.222
-95.256
-96.943
-96.899
-94.824
-90.752
-84.908
-78.003
-71.15
-65.157
-60.755
-58.686
-59.102
-61.524
-64.838
-66.959
-65.647
-58.862
-43.922
-18.313
19.532
68.677
124.952
184.004
243.425
305.021
372.109
442.471
506.328
547.128
550.157
509.916
432.464
333.821
228.114
128.246
44.508
-19.914
-58.884
-72.51
-69.424
-55.847
-41.718
-32.774
-26.284
-21.711
-18.122
-15.414
-16.869
-23.243
-33.079
-44.596
-55.201
-63.316
-68.714
-71.312
-71.228
-68.886
-64.848
-59.968
-55.178
-51.02
-47.688
-45.207
-43.502
-42.534
-42.279
-42.627
-43.422
-44.544
-45.917
-47.508
-49.294
-51.204
-53.12
-54.892
-56.404
-57.598
-58.443
-58.935
-59.065
-58.822
-58.217
-57.288
-56.073
-54.609
-52.931
-51.06
-49.036
-46.913
-44.749
-42.615
-40.561
-38.619
-36.811
-35.149
-33.641
-32.29
-31.091
-30.027
-29.085
-28.254
-27.527
-26.9
-26.362
-25.9
-25.496
-25.137
-24.808
-24.496
-24.189
-23.873
-23.537
-23.172
-22.769
-22.32
-21.816
-21.248
-20.604
-19.875
-19.049
-18.117
-17.07
-15.899
-14.596
-13.157
-11.578
-9.857
-7.993
-5.989
-3.848
-1.573
0.829
3.351
5.986
8.724
11.556
14.471
17.456
20.5
23.59
26.711
29.85
32.992
36.122
39.225
42.288
45.294
48.23
51.08
53.832
56.472
58.985
61.36
63.582
65.642
67.528
69.231
70.743
72.058
73.171
74.078
74.777
75.268
75.551
75.628
75.501
75.174
74.652
73.941
73.048
71.979
70.744
69.352
67.812
66.135
64.332
62.414
60.391
58.275
56.078
53.812
51.489
49.12
46.718
44.296
41.865
39.438
37.026
34.642
32.295
29.995
27.753
25.577
23.476
21.456
19.526
17.691
15.959
14.334
12.821
11.426
10.151
8.999
7.974
7.078
6.313
5.68
5.181
4.816
4.587
4.494
4.536
4.715
5.028
5.476
6.056
6.767
7.607
8.572
9.66
10.868
12.192
13.63
15.177
16.829
18.583
20.434
22.377
24.407
26.52
28.709
30.97
33.296
35.682
38.122
40.609
43.137
45.7
48.291
50.903
53.528
56.159
58.789
61.411
64.016
66.599
69.151
71.665
74.136
76.556
78.919
81.22
83.453
85.611
87.691
89.688
91.596
93.412
95.133
96.756
98.278
99.698
101.013
102.224
103.329
104.328
105.221
106.01
106.694
107.277
107.76
108.145
108.435
108.634
108.746
108.774
108.722
108.595
108.395
108.129
107.799
107.41
106.966
106.472
105.93
105.345
104.721
104.062
103.371
102.65
101.903
101.133
100.341
99.529
98.7
97.853
96.991
96.115
95.224
94.32
93.401
92.469
91.522
90.56
89.582
88.586
87.571
86.536
85.48
84.4
83.297
82.169
81.016
79.835
78.626
77.389
76.123
74.827
73.5
72.144
70.756
69.337
67.888
66.409
64.899
63.361
61.794
60.201
58.58
56.935
55.265
53.573
51.858
50.124
48.37
46.599
44.813
43.011
41.197
39.371
37.534
35.687
33.831
31.966
30.091
28.208
26.316
24.415
22.506
20.587
18.658
16.721
14.774
12.818
10.853
8.878
6.895
4.904
2.906
0.9
-1.11
-3.125
-5.144
-7.163
-9.182
-11.197
-13.208
-15.212
-17.205
-19.185
-21.148
-23.09
-25.007
-26.895
-28.749
-30.562
-32.331
-34.049
-35.711
-37.313
-38.848
-40.312
-41.702
-43.011
-44.238
-45.379
-46.433
-47.399
-48.279
-49.071
-49.778
-50.402
-50.945
-51.41
-51.797
-52.11
-52.349
-52.52
-52.627
-52.676
-52.675
-52.631
-52.553
-52.449
-52.329
-52.203
-52.082
-51.971
-51.882
-51.823
-51.809
-51.863
-52.001
-52.229
-52.552
-52.967
-53.466
-54.043
-54.677
-55.334
-55.983
-56.593
-57.139
-57.61
-57.989
-58.244
-58.338
-58.221
-57.854
-57.229
-56.348
-55.22
-53.87
-52.326
-50.651
-48.954
-47.336
-45.873
-44.628
-43.63
-42.921
-42.584
-42.697
-43.339
-44.562
-46.357
-48.686
-51.493
-54.689
-58.161
-61.739
-65.187
-68.254
-70.714
-72.363
-73.006
-72.41
-70.289
-66.322
-60.153
-51.574
-40.565
-27.264
-12.018
4.813
22.995
42.146
61.731
81.589
101.949
123.506
147.539
175.007
206.178
241.221
280.092
321.851
364.842
406.348
442.568
470.151
486.656
490.076
479.13
453.89
415.597
367.111
312.736
256.711
202.884
154.686
114.879
85.121
65.892
56.233
54.003
56.802
62.168
68.009
72.602
74.733
73.953
70.552
65.412
59.679
54.548
50.795
48.915
49.188
51.519
55.603
60.922
66.76
72.418
77.464
81.668
84.927
87.255
88.657
89.17
88.921
88.067
86.735
85.011
82.938
80.564
77.984
75.342
72.789
70.438
68.351
66.563
65.096
63.97
63.194
62.751
62.598
62.699
63.017
63.529
64.215
65.041
65.958
66.913
67.844
68.71
69.486
70.154
70.704
71.131
71.435
71.628
71.727
71.747
71.697
71.582
71.406
71.176
70.902
70.596
70.265
69.918
69.562
69.201
68.842
68.487
68.139
67.799
67.467
67.143
66.829
66.53
66.248
65.987
65.751
65.543
65.366
65.224
65.117
65.048
65.015
65.018
65.055
65.125
65.225
65.352
65.502
65.674
65.863
66.066
66.279
66.498
66.721
66.944
67.162
67.372
67.57
67.753
67.916
68.058
68.173
68.259
68.312
68.329
68.306
68.24
68.126
67.96
67.739
67.458
67.114
66.705
66.227
65.68
65.061
64.371
63.608
62.772
61.864
60.883
59.83
58.706
57.511
56.246
54.913
53.512
52.046
50.516
48.924
47.271
45.559
43.788
41.961
40.077
38.139
36.148
34.106
32.015
29.876
27.693
25.468
23.203
20.901
18.564
16.194
13.792
11.361
8.902
6.417
3.907
1.373
-1.182
-3.759
-6.355
-8.97
-11.602
-14.252
-16.918
-19.6
-22.297
-25.007
-27.728
-30.46
-33.199
-35.943
-38.688
-41.433
-44.173
-46.905
-49.626
-52.332
-55.02
-57.684
-60.321
-62.926
-65.494
-68.02
-70.499
-72.924
-75.291
-77.594
-79.829
-81.988
-84.067
-86.061
-87.963
-89.768
-91.47
-93.065
-94.546
-95.909
-97.151
-98.266
-99.253
-100.11
-100.834
-101.425
-101.882
-102.207
-102.401
-102.465
-102.403
-102.218
-101.914
-101.497
-100.974
-100.35
-99.633
-98.832
-97.954
-97.009
-96.005
-94.953
-93.861
-92.74
-91.6
-90.451
-89.304
-88.169
-87.057
-85.978
-84.941
-83.956
-83.032
-82.177
-81.399
-80.705
-80.1
-79.591
-79.181
-78.875
-78.675
-78.584
-78.601
-78.727
-78.96
-79.297
-79.736
-80.272
-80.9
-81.615
-82.409
-83.278
-84.212
-85.205
-86.248
-87.332
-88.448
-89.587
-90.741
-91.898
-93.051
-94.19
-95.306
-96.39
-97.435
-98.432
-99.373
-100.252
-101.061
-101.795
-102.447
-103.013
-103.489
-103.872
-104.158
-104.346
-104.437
-104.428
-104.322
-104.119
-103.821
-103.431
-102.952
-102.387
-101.741
-101.018
-100.223
-99.362
-98.441
-97.465
-96.441
-95.374
-94.272
-93.14
-91.984
-90.81
-89.626
-88.436
-87.247
-86.066
-84.898
-83.75
-82.627
-81.534
-80.476
-79.459
-78.485
-77.559
-76.683
-75.86
-75.091
-74.379
-73.726
-73.133
-72.599
-72.125
-71.71
-71.354
-71.056
-70.813
-70.623
-70.484
-70.394
-70.35
-70.35
-70.391
-70.468
-70.58
-70.722
-70.891
-71.083
-71.294
-71.518
-71.752
-71.992
-72.234
-72.475
-72.71
-72.936
-73.15
-73.352
-73.542
-73.718
-73.881
-74.03
-74.167
-74.292
-74.408
-74.511
-74.603
-74.68
-74.746
-74.802
-74.849
-74.891
-74.93
-74.969
-75.011
-75.059
-75.113
-75.169
-75.225
-75.28
-75.341
-75.418
-75.518
-75.646
-75.807
-76.004
-76.237
-76.495
-76.757
-76.994
-77.179
-77.292
-77.323
-77.262
-77.094
-76.8
-76.351
-75.728
-74.916
-73.9
-72.661
-71.186
-69.49
-67.631
-65.691
-63.76
-61.909
-60.166
-58.567
-57.176
-56.064
-55.308
-54.979
-55.091
-55.692
-56.912
-58.781
-61.211
-63.916
-66.382
-68.129
-68.792
-67.972
-65.412
-61.124
-55.318
-48.848
-42.848
-38.188
-36.137
-37.561
-42.175
-49.775
-58.072
-63.326
-64.343
-58.611
-45.936
-29.111
-5.16
27.569
73.457
141.254
228.647
328.935
428.045
501.126
534.868
524.982
474.114
401.219
319.018
232.738
152.245
77.17
10.276
-38.873
-72.536
-91.52
-97.348
-97.847
-93.324
-83.881
-72.573
-60.213
-49.885
-44.44
-43.938
-47.735
-54.352
-62
-69.106
-74.562
-77.83
-78.624
-77.137
-73.942
-69.586
-64.761
-60.265
-56.523
-53.73
-51.987
-51.176
-51.179
-51.931
-53.264
-54.993
-57.001
-59.174
-61.432
-63.728
-65.953
-67.996
-69.782
-71.246
-72.365
-73.143
-73.57
-73.652
-73.413
-72.882
-72.097
-71.096
-69.906
-68.562
-67.106
-65.585
-64.059
-62.572
-61.154
-59.829
-58.609
-57.498
-56.5
-55.608
-54.806
-54.083
-53.428
-52.833
-52.293
-51.8
-51.343
-50.909
-50.482
-50.053
-49.612
-49.148
-48.653
-48.119
-47.539
-46.909
-46.227
-45.488
-44.685
-43.813
-42.865
-41.835
-40.719
-39.513
-38.211
-36.81
-35.31
-33.71
-32.013
-30.219
-28.331
-26.353
-24.288
-22.142
-19.92
-17.629
-15.274
-12.864
-10.407
-7.912
-5.39
-2.85
-0.302
2.242
4.77
7.273
9.737
12.152
14.505
16.786
18.982
21.081
23.072
24.944
26.685
28.286
29.737
31.029
32.154
33.107
33.881
34.472
34.875
35.087
35.106
34.932
34.563
34
33.246
32.303
31.174
29.865
28.382
26.731
24.919
22.955
20.847
18.604
16.238
13.758
11.176
8.503
5.753
2.938
0.072
-2.833
-5.763
-8.705
-11.646
-14.572
-17.471
-20.331
-23.14
-25.887
-28.56
-31.149
-33.644
-36.036
-38.317
-40.479
-42.516
-44.422
-46.193
-47.825
-49.315
-50.66
-51.859
-52.912
-53.817
-54.576
-55.19
-55.662
-55.994
-56.192
-56.26
-56.202
-56.026
-55.738
-55.345
-54.853
-54.271
-53.606
-52.867
-52.062
-51.2
-50.291
-49.342
-48.364
-47.364
-46.352
-45.336
-44.323
-43.321
-42.337
-41.378
-40.45
-39.56
-38.713
-37.916
-37.174
-36.492
-35.875
-35.327
-34.851
-34.451
-34.129
-33.887
-33.728
-33.651
-33.659
-33.751
-33.928
-34.188
-34.533
-34.959
-35.464
-36.047
-36.705
-37.433
-38.229
-39.09
-40.012
-40.991
-42.025
-43.11
-44.243
-45.421
-46.64
-47.896
-49.185
-50.505
-51.85
-53.218
-54.604
-56.005
-57.417
-58.838
-60.265
-61.695
-63.125
-64.553
-65.977
-67.394
-68.803
-70.202
-71.592
-72.97
-74.338
-75.697
-77.046
-78.387
-79.721
-81.049
-82.373
-83.693
-85.01
-86.325
-87.638
-88.95
-90.263
-91.577
-92.894
-94.214
-95.539
-96.869
-98.206
-99.549
-100.899
-102.256
-103.62
-104.991
-106.368
-107.751
-109.138
-110.53
-111.923
-113.317
-114.707
-116.091
-117.464
-118.822
-120.159
-121.471
-122.753
-124
-125.206
-126.367
-127.477
-128.534
-129.531
-130.464
-131.329
-132.12
-132.833
-133.465
-134.01
-134.465
-134.827
-135.092
-135.258
-135.324
-135.288
-135.149
-134.906
-134.558
-134.107
-133.555
-132.903
-132.155
-131.316
-130.393
-129.394
-128.327
-127.201
-126.025
-124.811
-123.568
-122.306
-121.032
-119.756
-118.487
-117.235
-116.01
-114.822
-113.68
-112.596
-111.583
-110.655
-109.823
-109.096
-108.476
-107.968
-107.58
-107.323
-107.206
-107.235
-107.408
-107.724
-108.186
-108.791
-109.532
-110.386
-111.31
-112.27
-113.243
-114.205
-115.144
-116.039
-116.85
-117.55
-118.119
-118.55
-118.849
-119.013
-119.019
-118.875
-118.609
-118.276
-117.97
-117.756
-117.666
-117.732
-117.966
-118.388
-119.07
-120.054
-121.354
-122.985
-124.89
-127.035
-129.49
-132.182
-134.893
-137.316
-138.893
-139.119
-137.851
-134.965
-130.312
-124.055
-116.443
-107.98
-99.914
-93.425
-88.94
-86.512
-85.753
-85.697
-85.352
-83.356
-77.241
-64.425
-43.36
-13.46
24.836
70.025
120.019
172.233
222.759
266.595
299.727
319.334
322.979
311.226
286.001
247.299
198.009
139.663
72.78
5.838
-54.131
-99.569
-122.794
-128.692
-122.869
-110.934
-100.417
-90.095
-79.281
-69.668
-60.585
-54.288
-52.388
-53.669
-57.559
-63.002
-68.339
-72.841
-76.104
-77.743
-77.888
-76.953
-75.28
-73.29
-71.487
-70.119
-69.271
-68.989
-69.176
-69.696
-70.433
-71.215
-71.85
-72.213
-72.254
-71.959
-71.346
-70.419
-69.151
-67.528
-65.565
-63.287
-60.717
-57.877
-54.777
-51.437
-47.903
-44.231
-40.473
-36.683
-32.895
-29.131
-25.415
-21.767
-18.205
-14.74
-11.377
-8.112
-4.946
-1.883
1.076
3.926
6.673
9.325
11.891
14.378
16.798
19.157
21.464
23.729
25.959
28.16
30.338
32.499
34.648
36.793
38.941
41.102
43.284
45.494
47.74
50.028
52.365
54.755
57.203
59.711
62.282
64.918
67.62
70.39
73.228
76.135
79.11
82.151
85.258
88.428
91.659
94.946
98.285
101.671
105.1
108.564
112.058
115.576
119.11
122.653
126.198
129.736
133.259
136.76
140.229
143.659
147.042
150.368
153.632
156.825
159.942
162.975
165.918
168.765
171.511
174.15
176.676
179.084
181.37
183.527
185.551
187.438
189.182
190.78
192.228
193.523
194.661
195.64
196.459
197.115
197.609
197.939
198.106
198.11
197.952
197.634
197.157
196.523
195.736
194.798
193.712
192.481
191.11
189.602
187.96
186.189
184.294
182.278
180.148
177.911
175.572
173.14
170.623
168.03
165.371
162.656
159.894
157.095
154.269
151.426
148.577
145.734
142.905
140.102
137.334
134.614
131.951
129.356
126.84
124.41
122.076
119.848
117.737
115.754
113.908
112.208
110.66
109.272
108.052
107.007
106.142
105.461
104.966
104.658
104.54
104.614
104.884
105.345
105.991
106.812
107.805
108.969
110.312
111.837
113.542
115.42
117.463
119.665
122.02
124.515
127.127
129.822
132.565
135.329
138.107
140.897
143.685
146.428
149.053
151.48
153.668
155.616
157.346
158.858
160.127
161.106
161.812
162.381
162.891
163.261
163.241
162.509
160.934
158.73
156.205
153.444
150.577
147.887
145.923
145.574
147.353
150.923
155.55
160.541
165.048
168.372
169.714
167.68
161.305
150.66
136.285
119.181
100.837
82.245
